time,magnitude
0.0,1.0921682206106322
0.001,1.087985536355716
0.002,1.0785984694029107
0.003,1.0640408129493313
0.004,1.0442253460375088
0.005,1.0195194700300028
0.006,0.9903388072014336
0.007,0.9570952540325249
0.008,0.9201969812101022
0.009000000000000001,0.8800484336270938
0.01,0.8370503303825306
0.011,0.7915844813813148
0.012,0.743967133264633
0.013000000000000001,0.6944950665477124
0.014,0.6434613359485349
0.015,0.5911552703911852
0.016,0.5378624730058507
0.017,0.48386482112882123
0.018000000000000002,0.4294404663024885
0.019,0.3748638342753477
0.02,0.32040562500199554
0.021,0.26635519246631856
0.022,0.2130909680657518
0.023,0.16101170907822301
0.024,0.11051244702794241
0.025,0.06197431440809326
0.026000000000000002,0.01562406133657875
0.027,-0.028395552623131252
0.028,-0.06994648845629825
0.029,-0.10890062335671896
0.03,-0.14513975072672586
0.031,-0.17857480205952192
0.032,-0.2092077824106954
0.033,-0.2370720284578017
0.034,-0.26221079320555407
0.035,-0.28467724586720117
0.036000000000000004,-0.30453447186452753
0.037,-0.32185547282785343
0.038,-0.3367231665960354
0.039,-0.3492303872164652
0.04,-0.35947988494507077
0.041,-0.3675741680371978
0.042,-0.37358199151073895
0.043000000000000003,-0.37757029419106747
0.044,-0.37961593096073964
0.045,-0.37980567291084755
0.046,-0.3782362073410185
0.047,-0.3750141377594161
0.048,-0.3702559838827397
0.049,-0.3640881816362246
0.05,-0.35664708315364174
0.051000000000000004,-0.3480851228267909
0.052000000000000005,-0.33859164107819567
0.053,-0.32837327719547577
0.054,-0.31764658685757624
0.055,-0.30661286555814393
0.056,-0.2953826446266632
0.057,-0.28406458813057517
0.058,-0.2727635390245391
0.059000000000000004,-0.26157900364772335
0.06,-0.25060515172380576
0.061,-0.23992281702389817
0.062,-0.22957184466375444
0.063,-0.21957681445742297
0.064,-0.2099569691859852
0.065,-0.20072621501503174
0.066,-0.19189312149466212
0.067,-0.1834609215594852
0.068,-0.17542751152861893
0.069,-0.16778545110569026
0.07,-0.1605219633788354
0.07100000000000001,-0.15362670459677388
0.07200000000000001,-0.14711925437687468
0.073,-0.14102385282657992
0.074,-0.1353594040939358
0.075,-0.13013947571149753
0.076,-0.12537229859632978
0.077,-0.12106076705000605
0.078,-0.11720243875860921
0.079,-0.11378953479273099
0.08,-0.11080893960747247
0.081,-0.10823757549739961
0.082,-0.10602565410385979
0.083,-0.10411188091975336
0.084,-0.10242962422835045
0.085,-0.1009069156974299
0.08600000000000001,-0.09946645037928029
0.08700000000000001,-0.0980674872211795
0.088,-0.09675078209117514
0.089,-0.09549803207714011
0.09,-0.0942885030662128
0.091,-0.0931055106099346
0.092,-0.09195003234824747
0.093,-0.09082850133333753
0.094,-0.08974772713292817
0.095,-0.08871489514550808
0.096,-0.08773756660033193
0.097,-0.08682367855741961
0.098,-0.08598154390755658
0.099,-0.08521985137229396
0.1,-0.08454766550394853
0.101,-0.08396984023190854
0.10200000000000001,-0.08346964213272012
0.10300000000000001,-0.08302415925027322
0.10400000000000001,-0.08261085592717443
0.105,-0.08220757233679621
0.106,-0.08179252448327627
0.107,-0.08134430420151803
0.108,-0.08084187915719038
0.109,-0.08026459284672781
0.11,-0.07959216459733037
0.111,-0.07880880407687202
0.112,-0.07791917118199163
0.113,-0.07693441459324907
0.114,-0.07586606027689155
0.115,-0.0747260100299317
0.116,-0.07352654148014781
0.117,-0.07228030808608366
0.11800000000000001,-0.0710003391370485
0.11900000000000001,-0.06970003975311725
0.12,-0.0683931908851304
0.121,-0.06709258034197244
0.122,-0.06580457023927659
0.123,-0.06453272839553481
0.124,-0.06327229697598284
0.125,-0.06202263719831411
0.126,-0.060784670145626156
0.127,-0.05955934101195414
0.128,-0.05834761910227045
0.129,-0.05715049783248526
0.13,-0.055968994729446074
0.131,-0.054802714909345775
0.132,-0.05364401947587462
0.133,-0.05248300038889119
0.134,-0.05130977284753433
0.135,-0.05011447616188029
0.136,-0.04888727375294297
0.137,-0.04761835315267371
0.138,-0.046297926003961355
0.139,-0.0449162280606322
0.14,-0.043463519187450124
0.14100000000000001,-0.04193027914031296
0.14200000000000002,-0.040308020551596
0.14300000000000002,-0.0385886041359987
0.14400000000000002,-0.03676391487046833
0.145,-0.03482586184288987
0.146,-0.03276637825208559
0.147,-0.030577421407815324
0.148,-0.028250972730776515
0.149,-0.02577903775260383
0.15,-0.023153646115869654
0.151,-0.020371701694495217
0.152,-0.017455583128354973
0.153,-0.014436012429611771
0.154,-0.011343740423670031
0.155,-0.008209542046871745
0.156,-0.005064216346496378
0.157,-0.001938586480760858
0.158,0.001136500281180302
0.159,0.0041301725592354
0.16,0.0070115348623747634
0.161,0.009757513470693249
0.162,0.01238694083621768
0.163,0.014932575018795326
0.164,0.017427159384309814
0.165,0.01990341318770748
0.166,0.022394031572996735
0.167,0.024931685573248975
0.168,0.0275490221105979
0.169,0.03027866399623974
0.17,0.03315320993043315
0.171,0.036198909886543305
0.17200000000000001,0.039407564616427394
0.17300000000000001,0.042759294832320785
0.17400000000000002,0.0462341878464288
0.17500000000000002,0.04981230686001967
0.176,0.05347369096342363
0.177,0.05719835513603422
0.178,0.06096629024630654
0.179,0.06475746305175885
0.18,0.06855181692755781
0.181,0.07233805872081306
0.182,0.07612340639461473
0.183,0.0799164167580019
0.184,0.08372565029687284
0.185,0.08755966479678648
0.186,0.09142701534296223
0.187,0.09533625432028034
0.188,0.09929593141328136
0.189,0.10331459360616675
0.19,0.10740078518279847
0.191,0.11156088488165543
0.192,0.11578905559105702
0.193,0.12007517485908079
0.194,0.1244091129158308
0.195,0.12878073729107187
0.196,0.1331799128142294
0.197,0.13759650161438897
0.198,0.14202036312029728
0.199,0.14644135406036138
0.2,0.15084932846264892
0.201,0.15523684840889626
0.202,0.15961206652927146
0.203,0.16398871137997167
0.20400000000000001,0.168380528352737
0.20500000000000002,0.17280126547168134
0.20600000000000002,0.17726466854356343
0.20700000000000002,0.18178448067480332
0.20800000000000002,0.18637444227148098
0.209,0.19104829103933743
0.21,0.19581976198377404
0.211,0.2006968303361672
0.212,0.20565373682663537
0.213,0.2106524716333775
0.214,0.21565500494511672
0.215,0.2206233042502363
0.216,0.22551933433678048
0.217,0.23030505729245368
0.218,0.2349424325046215
0.219,0.23939341666030967
0.22,0.24361996374620465
0.221,0.2475934750971237
0.222,0.25134175464963926
0.223,0.254913442770738
0.224,0.25835721043883814
0.225,0.26172172593201826
0.226,0.2650556548280178
0.227,0.26840766000423644
0.228,0.2718264016377349
0.229,0.2753605372052342
0.23,0.2790587214831159
0.231,0.2829603755748013
0.232,0.28704878683430346
0.233,0.2912861399081989
0.234,0.2956345787788123
0.23500000000000001,0.30005624472812875
0.23600000000000002,0.30451327633779446
0.23700000000000002,0.30896780948911545
0.23800000000000002,0.3133819773630594
0.23900000000000002,0.31771791044025394
0.24,0.3219377365009871
0.241,0.32600626791763565
0.242,0.32990496240237416
0.243,0.333621642082437
0.244,0.3371441392079133
0.245,0.3404602833285527
0.246,0.34355790129376534
0.247,0.34642481725262225
0.248,0.3490488526538548
0.249,0.3514178262458553
0.25,0.35351955407667607
0.251,0.3553479915774601
0.252,0.35693586007925016
0.253,0.35833096303602313
0.254,0.3595811350355442
0.255,0.3607342079652393
0.256,0.36183801101219454
0.257,0.3629403706631571
0.258,0.3640891107045345
0.259,0.36533205222239495
0.26,0.3667170136024669
0.261,0.36828288271960086
0.262,0.3700111264403642
0.263,0.37186048040320174
0.264,0.3737896210367839
0.265,0.3757572220694423
0.266,0.3777219545291687
0.267,0.3796424867436158
0.268,0.3814774843400965
0.269,0.3831853000868465
0.27,0.3847246065000884
0.271,0.3860593691030872
0.272,0.3871690061155095
0.273,0.38803907383804026
0.274,0.38865516964407065
0.275,0.38900291520225466
0.276,0.38906795647650994
0.277,0.3888359637260169
0.278,0.3882926315052193
0.279,0.38742367866382416
0.28,0.3862148483468017
0.281,0.38465829917234995
0.28200000000000003,0.3827888962766431
0.28300000000000003,0.38065901267920577
0.28400000000000003,0.37832109844005296
0.28500000000000003,0.3758276279144637
0.28600000000000003,0.37323109975297936
0.28700000000000003,0.370584036901405
0.28800000000000003,0.3679389866008087
0.289,0.365348520387522
0.29,0.3628652340931392
0.291,0.3605332189578358
0.292,0.35833854344589183
0.293,0.35624311422082644
0.294,0.35420878232207387
0.295,0.3521974230843319
0.296,0.35017093613756106
0.297,0.3480912454069853
0.298,0.3459202991130919
0.299,0.34362006977163106
0.3,0.3411525541936164
0.301,0.3384861418389281
0.302,0.3356334204018646
0.303,0.33262571994338846
0.304,0.32949445001935607
0.305,0.32627104146103375
0.306,0.32298694939495076
0.307,0.31967365324290015
0.308,0.31636265672193736
0.309,0.3130854878443819
0.31,0.3098736989178158
0.311,0.3067523743569828
0.312,0.30370072301763995
0.313,0.30067819276571234
0.314,0.2976441781154722
0.315,0.29455809787645526
0.316,0.29137939515345995
0.317,0.2880675373465485
0.318,0.2845820161510458
0.319,0.2808823475575402
0.32,0.27692807185188295
0.321,0.2726857092472269
0.322,0.2681719309920467
0.323,0.2634254084129027
0.324,0.2584849306897703
0.325,0.25338931129788766
0.326,0.24817738800775646
0.327,0.2428880228851412
0.328,0.23756010229107008
0.329,0.23223253688183407
0.33,0.22694426160898762
0.331,0.2217305807557736
0.332,0.21659997186051766
0.333,0.21154896491829508
0.334,0.20657405908296858
0.335,0.20167177780366408
0.336,0.19683866882477088
0.337,0.19207130418594137
0.338,0.18736628022209142
0.339,0.18272021756339968
0.34,0.17812976113530815
0.341,0.1735910383964796
0.342,0.1690961435352329
0.343,0.16463535523237185
0.34400000000000003,0.16019896732174713
0.34500000000000003,0.15577729793247144
0.34600000000000003,0.15136068948892156
0.34700000000000003,0.14693950871073733
0.34800000000000003,0.14250414661282151
0.34900000000000003,0.13804501850533987
0.35000000000000003,0.13355256399372217
0.35100000000000003,0.12901968644062814
0.352,0.12445794144460542
0.353,0.11988749820188821
0.354,0.11532859614181937
0.355,0.11080149898900404
0.356,0.10632649476331073
0.357,0.10192380721942575
0.358,0.09760891074267838
0.359,0.09339765723688076
0.36,0.0893079969759656
0.361,0.08535470701790064
0.362,0.08152802210967446
0.363,0.07780665670225279
0.364,0.07416923495363469
0.365,0.07059435675051558
0.366,0.06706059770828737
0.367,0.06354650917103834
0.368,0.060030618211552936
0.369,0.056491427631312284
0.37,0.0529074159604938
0.371,0.04926109974016911
0.372,0.04556722482955103
0.373,0.04185589049229691
0.374,0.03815726634603262
0.375,0.03450149773707992
0.376,0.030918705740457297
0.377,0.02743898715987958
0.378,0.024092414527757657
0.379,0.020909036105199306
0.38,0.017918875882008273
0.381,0.015146833573275963
0.382,0.012576488978259283
0.383,0.01017137828972274
0.384,0.007894881710041064
0.385,0.005710355170285777
0.386,0.003581130330224557
0.387,0.0014705145783216133
0.388,-0.0006582089682627005
0.389,-0.0028417814636713867
0.39,-0.005116968333351084
0.391,-0.007516095487384198
0.392,-0.010034649072584594
0.393,-0.012649969154834404
0.394,-0.015339292486467091
0.395,-0.018079880091119528
0.396,-0.02084901726373227
0.397,-0.023624013570549742
0.398,-0.026382202849119383
0.399,-0.029100943208292818
0.4,-0.03175761702822498
0.401,-0.03433047631879174
0.402,-0.03680491846117555
0.403,-0.03916993382627571
0.404,-0.04141456700282019
0.405,-0.043527891776720076
0.406,-0.045499006974855066
0.40700000000000003,-0.0473170406401884
0.40800000000000003,-0.048971148682570284
0.40900000000000003,-0.050450511364241515
0.41000000000000003,-0.0517443332187465
0.41100000000000003,-0.052845187349893755
0.41200000000000003,-0.05377440939434942
0.41300000000000003,-0.05456800122054077
0.41400000000000003,-0.055262105420710736
0.41500000000000004,-0.0558928888584059
0.41600000000000004,-0.056496542668476715
0.417,-0.05710928225707687
0.418,-0.057767347301664
0.419,-0.0585070017509991
0.42,-0.05936453382514695
0.421,-0.06037234372497043
0.422,-0.06152855708134788
0.423,-0.06281355811159489
0.424,-0.06420760530488413
0.425,-0.06569098142169155
0.426,-0.067243993493797
0.427,-0.0688469728242838
0.428,-0.07048027498753899
0.429,-0.07212427982925314
0.43,-0.07375939146642042
0.431,-0.07536596172192142
0.432,-0.07692368180269818
0.433,-0.07841190655117905
0.434,-0.07981001185370759
0.435,-0.0810973978679313
0.436,-0.08225348902280072
0.437,-0.08325773401857055
0.438,-0.08408960582679872
0.439,-0.08472860169034732
0.44,-0.08515424312338116
0.441,-0.08534985520820312
0.442,-0.0853332843510652
0.443,-0.08514086680638594
0.444,-0.08480796975115923
0.445,-0.08436734146442781
0.446,-0.08385453692054635
0.447,-0.08330531394246604
0.448,-0.08275542319428975
0.449,-0.08224060818127213
0.45,-0.08179660524981873
0.451,-0.0814567600673776
0.452,-0.08123220759942161
0.453,-0.08112199421994118
0.454,-0.08112503821467058
0.455,-0.08124025071049591
0.456,-0.08146653567545475
0.457,-0.08180278991873603
0.458,-0.08224790309068043
0.459,-0.08280075768277982
0.46,-0.08346022902767795
0.461,-0.08422294225451502
0.462,-0.08506418865606087
0.463,-0.08594745679109671
0.464,-0.08683610345046391
0.465,-0.08769347826615544
0.466,-0.08848292371131576
0.467,-0.08916777510024097
0.468,-0.08971136058837857
0.46900000000000003,-0.09007700117232752
0.47000000000000003,-0.09022801068983838
0.47100000000000003,-0.09013201086651752
0.47200000000000003,-0.0897984959552062
0.47300000000000003,-0.08926049725041346
0.47400000000000003,-0.08855130104982833
0.47500000000000003,-0.08770418649229142
0.47600000000000003,-0.08675242555779478
0.47700000000000004,-0.08572928306748197
0.47800000000000004,-0.08466801668364819
0.47900000000000004,-0.08360187690973998
0.48,-0.08256410709035558
0.481,-0.08158547506863122
0.482,-0.08067228424041198
0.483,-0.07981685562295678
0.484,-0.07901133925599575
0.485,-0.07824787802041064
0.486,-0.0775186076382346
0.487,-0.07681565667265222
0.488,-0.07613114652799993
0.489,-0.07545719144976529
0.49,-0.07478589852458767
0.491,-0.07411138781842072
0.492,-0.07344820950115863
0.493,-0.07282277597486016
0.494,-0.07226163878122364
0.495,-0.07179134230309908
0.496,-0.07143842376448788
0.497,-0.07122941323054302
0.498,-0.07119083360756888
0.499,-0.07134920064302157
0.5,-0.07173102292550852
0.501,-0.0723579448998838
0.502,-0.07320142709270862
0.503,-0.07420330528897963
0.504,-0.0753050221171454
0.505,-0.07644798429581778
0.506,-0.07757357338257019
0.507,-0.07862316349972945
0.508,-0.07953812161077395
0.509,-0.08025980752033338
0.51,-0.0807295738741893
0.511,-0.08089485667135789
0.512,-0.08076734477448755
0.513,-0.08039726909547801
0.514,-0.07983537697798844
0.515,-0.07913240860682981
0.516,-0.07833909700796443
0.517,-0.07750616804850621
0.518,-0.07668434043672048
0.519,-0.07592432572202432
0.52,-0.07527682829498598
0.521,-0.07478836891773132
0.522,-0.07446045148099519
0.523,-0.07426713202295399
0.524,-0.0741820687881743
0.525,-0.07417891286237403
0.526,-0.07423130817242268
0.527,-0.07431289148634113
0.528,-0.0743972924133021
0.529,-0.0744581334036295
0.53,-0.07446902974879877
0.531,-0.07440588141538575
0.532,-0.07426981312723004
0.533,-0.07407756227291375
0.534,-0.07384619687945869
0.535,-0.07359285398893226
0.536,-0.07333466917996263
0.537,-0.07308877653860044
0.538,-0.07287230865831859
0.539,-0.07270239664001268
0.54,-0.07259617009200081
0.541,-0.07256843779366402
0.542,-0.07260791769622679
0.543,-0.07268689987604031
0.544,-0.07277741679645676
0.545,-0.07285149942825062
0.546,-0.07288117724961897
0.547,-0.07283847824618128
0.548,-0.07269542891097945
0.549,-0.07242405424447794
0.55,-0.07199637775456352
0.551,-0.07138825110698281
0.552,-0.07061954491708217
0.553,-0.0697382933158581
0.554,-0.06879298790041496
0.555,-0.06783211877527939
0.556,-0.06690417455240044
0.557,-0.06605764235114983
0.558,-0.06534100779832161
0.559,-0.06480275502813221
0.56,-0.06449136668222066
0.561,-0.06445025822857336
0.562,-0.06466333299503822
0.5630000000000001,-0.06507580137174122
0.5640000000000001,-0.06563221390112046
0.5650000000000001,-0.06627711963303631
0.5660000000000001,-0.06695506612477196
0.5670000000000001,-0.06761059944103272
0.5680000000000001,-0.06818826415394647
0.5690000000000001,-0.06863260334306348
0.5700000000000001,-0.06888815859535677
0.5710000000000001,-0.06890393901243563
0.5720000000000001,-0.06868261791307546
0.5730000000000001,-0.06826232155775586
0.5740000000000001,-0.06768180412259252
0.5750000000000001,-0.0669798182911238
0.5760000000000001,-0.0661951152543107
0.577,-0.06536644471053633
0.578,-0.06453255486560644
0.579,-0.06373219243274905
0.58,-0.06300410263261516
0.581,-0.0623843967908251
0.582,-0.06187686734065276
0.583,-0.06146361057949873
0.584,-0.06112631981721999
0.585,-0.060846686871096005
0.586,-0.06060640206582847
0.587,-0.060387154233541726
0.588,-0.06017063071378268
0.589,-0.0599385173535204
0.59,-0.05967249850714669
0.591,-0.05935582393245951
0.592,-0.05899141141835818
0.593,-0.05859559383983245
0.594,-0.05818496122046604
0.595,-0.057776102091265075
0.596,-0.05738560349065821
0.597,-0.05703005096449666
0.598,-0.05672602856605363
0.599,-0.05649011885602544
0.6,-0.05633890290253042
0.601,-0.056287292163755775
0.602,-0.05632878135941822
0.603,-0.05644202170879247
0.604,-0.05660536511983897
0.605,-0.056797174247442746
0.606,-0.056995857280029184
0.607,-0.057179832205916145
0.608,-0.057327515520843864
0.609,-0.05741732122322173
0.61,-0.057427656894132234
0.611,-0.05733862271187351
0.612,-0.05715258309372606
0.613,-0.05688757996751499
0.614,-0.05656198101020403
0.615,-0.05619415240617923
0.616,-0.05580245884724928
0.617,-0.055405263532645146
0.618,-0.055020928169020496
0.619,-0.05466781297045103
0.62,-0.05436427665843534
0.621,-0.05412660301168762
0.622,-0.053943219289359724
0.623,-0.05378262216358196
0.624,-0.05361287447199669
0.625,-0.0534020375596691
0.626,-0.05311817127908649
0.627,-0.05272933399015892
0.628,-0.05220358256021868
0.629,-0.05150897236402048
0.63,-0.050613557283741825
0.631,-0.049489248173334145
0.632,-0.04816099389555816
0.633,-0.04669229648873899
0.634,-0.04514752529086147
0.635,-0.043591048147332695
0.636,-0.042087231410982785
0.637,-0.040700439942063585
0.638,-0.039495037108249975
0.639,-0.038535384784638964
0.64,-0.0378858433537502
0.641,-0.03760575176333272
0.642,-0.03768382541152247
0.643,-0.038056622367998255
0.644,-0.03865947920639891
0.645,-0.03942773100778574
0.646,-0.04029671136064248
0.647,-0.04120175236087535
0.648,-0.04207818461181302
0.649,-0.0428613372242066
0.65,-0.043486537816229666
0.651,-0.04389251851005023
0.652,-0.04406705853065477
0.653,-0.04403473715115403
0.654,-0.04382102519682272
0.655,-0.04345139200035782
0.656,-0.04295130540187919
0.657,-0.042346231748928605
0.658,-0.04166163589647078
0.659,-0.04092298120689255
0.66,-0.04015572955000338
0.661,-0.039384790163812466
0.662,-0.03862694490702301
0.663,-0.037892780029495594
0.664,-0.0371927244499566
0.665,-0.03653720559455513
0.666,-0.0359366493968625
0.667,-0.03540148029787268
0.668,-0.034942121246001795
0.669,-0.034568993697088816
0.67,-0.03429287386319915
0.671,-0.03412449477227265
0.672,-0.034054089476225645
0.673,-0.03405742705650777
0.674,-0.03410990330482269
0.675,-0.03418690905078226
0.676,-0.034263830161906254
0.677,-0.034316047543622226
0.678,-0.03431893713926589
0.679,-0.0342478699300807
0.68,-0.0340782119352181
0.681,-0.033786799651745775
0.682,-0.033373281371914386
0.683,-0.03285525104180866
0.684,-0.03225078226947134
0.685,-0.03157794370085308
0.686,-0.03085479901981246
0.687,-0.03009940694811596
0.6880000000000001,-0.029329821245437905
0.6890000000000001,-0.02856409070936088
0.6900000000000001,-0.02782025917537506
0.6910000000000001,-0.027115274209639523
0.6920000000000001,-0.026448789001916467
0.6930000000000001,-0.02580663349218324
0.6940000000000001,-0.025174246524107175
0.6950000000000001,-0.02453706197926345
0.6960000000000001,-0.0238805087771352
0.6970000000000001,-0.023190010875113642
0.6980000000000001,-0.022450987268497764
0.6990000000000001,-0.021648851990494586
0.7000000000000001,-0.020769014112218948
0.7010000000000001,-0.019797525296465734
0.7020000000000001,-0.018730944753129964
0.7030000000000001,-0.017574362109002716
0.704,-0.01633310876798505
0.705,-0.015012510810973023
0.706,-0.013617869956433278
0.707,-0.012154454119506084
0.708,-0.010627523910586892
0.709,-0.009042334977979367
0.71,-0.007404138007894779
0.711,-0.005718208460459947
0.712,-0.003990311610875492
0.713,-0.0022266158687948567
0.714,-0.0004332968798141622
0.715,0.0013834746725623192
0.716,0.0032175330669227797
0.717,0.005062717543947086
0.718,0.0069128723064073964
0.719,0.008761846519167952
0.72,0.010603494309184721
0.721,0.012432486199283561
0.722,0.01425733902461453
0.723,0.016098172055425942
0.724,0.01797546777671443
0.725,0.019909713635568736
0.726,0.02192140204116968
0.727,0.024031030364790096
0.728,0.026259100939795003
0.729,0.028626121061641266
0.73,0.031152602987878152
0.731,0.033858082270277076
0.732,0.0367449285189986
0.733,0.0398009011007563
0.734,0.04301329798100855
0.735,0.046369422087306045
0.736,0.049856581309291076
0.737,0.05346594600018982
0.738,0.057195005664901745
0.739,0.061025916534202064
0.74,0.06493962935594846
0.741,0.0689177187264449
0.742,0.07295303374548018
0.743,0.0770481712190961
0.744,0.08120604441596163
0.745,0.08542956175130108
0.746,0.08972162678689351
0.747,0.09408513823107324
0.748,0.09852298993872961
0.749,0.10303807091130686
0.75,0.10763326529680439
0.751,0.11231076615773233
0.752,0.11706013085729015
0.753,0.12185981797886704
0.754,0.12668790402722505
0.755,0.13152246065368112
0.756,0.1363415546561074
0.757,0.14112324797893097
0.758,0.145845597713134
0.759,0.15048665609625336
0.76,0.15502447051238152
0.761,0.15943803448571725
0.762,0.1637242995239796
0.763,0.16789623893407699
0.764,0.17196738334644346
0.765,0.17595125853806848
0.766,0.17986138543249627
0.767,0.18371128009982612
0.768,0.1875144537567125
0.769,0.19128441276636438
0.77,0.19503465863854672
0.771,0.198778351728073
0.772,0.20252212705868775
0.773,0.2062667051846168
0.774,0.21001258804814227
0.775,0.2137602727381021
0.776,0.2175102514898886
0.777,0.22126301168544926
0.778,0.22501903585328697
0.779,0.22877880166845896
0.78,0.23254278195257827
0.781,0.2363107191100074
0.782,0.24006790626970137
0.783,0.24378633361552188
0.784,0.24743749067165388
0.785,0.25099286210883703
0.786,0.2544239277443661
0.787,0.25770216254209105
0.788,0.26079903661241655
0.789,0.2636860152123026
0.79,0.2663345587452642
0.791,0.26871711359827866
0.792,0.27082638062747144
0.793,0.2726740019924087
0.794,0.2742723428331879
0.795,0.2756337634364611
0.796,0.27677061923543594
0.797,0.2776952608098746
0.798,0.2784200338860945
0.799,0.2789572793369681
0.8,0.27931933318192276
0.801,0.2795178000171965
0.802,0.2795490170707815
0.803,0.27939481806793515
0.804,0.27903395883634385
0.805,0.27844891778969155
0.806,0.2776331993756629
0.807,0.27658052396537286
0.808,0.27528453908362327
0.809,0.27373881944543044
0.81,0.27193686695656605
0.811,0.269872762690321
0.812,0.2675545881106458
0.8130000000000001,0.2650039300197781
0.8140000000000001,0.26224285528597846
0.8150000000000001,0.25929335796826336
0.8160000000000001,0.2561773593164043
0.8170000000000001,0.25291670777092806
0.8180000000000001,0.24953317896311678
0.8190000000000001,0.24604847571500815
0.8200000000000001,0.24248422803939515
0.8210000000000001,0.2388615759914445
0.8220000000000001,0.2351923293926516
0.8230000000000001,0.23147915126428095
0.8240000000000001,0.22772425136126564
0.8250000000000001,0.22392976662929445
0.8260000000000001,0.22009776120481095
0.8270000000000001,0.2162302264150149
0.8280000000000001,0.2123290807778603
0.8290000000000001,0.20839617000205746
0.8300000000000001,0.20443326698707173
0.8310000000000001,0.20044197373826217
0.8320000000000001,0.19642158106925608
0.833,0.19236907831939243
0.834,0.1882812858774037
0.835,0.1841549513227782
0.836,0.17998674942575976
0.837,0.17577328214734753
0.838,0.17151107863929566
0.839,0.16719659524411384
0.84,0.16282621549506723
0.841,0.15839656397685534
0.842,0.15391156039763676
0.843,0.14938250340790377
0.844,0.14482094947403007
0.845,0.14023838225314492
0.846,0.13564621259313253
0.847,0.13105577853263292
0.848,0.1264783453010412
0.849,0.12192510531850773
0.85,0.11740717819593845
0.851,0.11293572198616636
0.852,0.10852450936681335
0.853,0.10419000112136396
0.854,0.09994871117479692
0.855,0.09581708064284618
0.856,0.09181147783200122
0.857,0.08794819823950684
0.858,0.08424346455336318
0.859,0.08071342665232561
0.86,0.07737416160590496
0.861,0.07424059777008238
0.862,0.07130083698949803
0.863,0.06851498913735231
0.864,0.06584178214843264
0.865,0.06323987114828167
0.866,0.06066783845319712
0.867,0.05808419357023252
0.868,0.05544737319719632
0.869,0.05271574122265253
0.87,0.04984758872592044
0.871,0.04680299822642546
0.872,0.043582437958311876
0.873,0.040210137943566315
0.874,0.036744733241314685
0.875,0.033249131954512116
0.876,0.02978574438886336
0.877,0.026416483052822754
0.878,0.023202762657594547
0.879,0.0202055001171324
0.88,0.01748511454813972
0.881,0.015099678143695753
0.882,0.013057989159883314
0.883,0.011315826651798049
0.884,0.009825872412752467
0.885,0.008540310438808704
0.886,0.007410826928778647
0.887,0.006388610284223704
0.888,0.005424351109454918
0.889,0.0044682422115332465
0.89,0.0034699786002691142
0.891,0.002380089080373608
0.892,0.0011848019031921956
0.893,-9.05600249702785e-05
0.894,-0.0014191592497447337
0.895,-0.0027746561140119972
0.896,-0.0041312087579037215
0.897,-0.005463473118801691
0.898,-0.006746602931337884
0.899,-0.007956249727394882
0.9,-0.009068562836105343
0.901,-0.010060816155175626
0.902,-0.010928346421679846
0.903,-0.011686504426637686
0.904,-0.012352157130456986
0.905,-0.012942669290795773
0.906,-0.013475903462637419
0.907,-0.013970229736276912
0.908,-0.014444552669385491
0.909,-0.014918283246941435
0.91,-0.015411330251173746
0.911,-0.01594430263989754
0.912,-0.01654415665420085
0.913,-0.01724494837494391
0.914,-0.018081585261292943
0.915,-0.01908947256966467
0.916,-0.020304513353725913
0.917,-0.021763108464393967
0.918,-0.023502156549836613
0.919,-0.02555905405547162
0.92,-0.027971695223967315
0.921,-0.030777760376885642
0.922,-0.03399564925036083
0.923,-0.03762552855133563
0.924,-0.04165833940024171
0.925,-0.046078939784047035
0.926,-0.05086678759796631
0.927,-0.055995940645460845
0.928,-0.061435056638239005
0.929,-0.06714739319625564
0.93,-0.07309080784771249
0.931,-0.07921831837706803
0.932,-0.0854947927153216
0.933,-0.0918997892844437
0.934,-0.09840859897209724
0.935,-0.10499111257419191
0.936,-0.11161182079488416
0.937,-0.11822981424657698
0.9380000000000001,-0.12479878344992054
0.9390000000000001,-0.13126701883381142
0.9400000000000001,-0.13757741073539317
0.9410000000000001,-0.14366741051809034
0.9420000000000001,-0.149467833313993
0.9430000000000001,-0.15490263168545745
0.9440000000000001,-0.15989027355189075
0.9450000000000001,-0.16434382674094677
0.9460000000000001,-0.16817095898852608
0.9470000000000001,-0.17127393793877607
0.9480000000000001,-0.17354963114409075
0.9490000000000001,-0.17488950606511103
0.9500000000000001,-0.17517963007072448
0.9510000000000001,-0.17430038070052828
0.9520000000000001,-0.17211721822689074
0.9530000000000001,-0.16847876460016079
0.9540000000000001,-0.1632287664897739
0.9550000000000001,-0.15648112492614474
0.9560000000000001,-0.1482381712880819
0.9570000000000001,-0.13828838790910594
0.9580000000000001,-0.12644323835183685
0.9590000000000001,-0.11253716740799438
0.96,-0.09642760109839961
0.961,-0.07799515021435935
0.962,-0.05715031790102826
0.963,-0.03383502641363442
0.964,-0.008014691947689808
0.965,0.02032228807219428
0.966,0.051164534992306936
0.967,0.08447768892983744
0.968,0.12020440877287598
0.969,0.1582643721804127
0.97,0.19855427558233832
0.971,0.24094778047089227
0.972,0.2852936810827714
0.973,0.3314154512019789
0.974,0.3791134377157471
0.975,0.42816500628220966
0.976,0.47832454133040064
0.977,0.5293234460602537
0.978,0.5808701424426043
0.979,0.6326500712191867
0.98,0.6843256919026369
0.981,0.7355366470292931
0.982,0.7859055661759292
0.983,0.8350396176842052
0.984,0.8825234684697827
0.985,0.9279188042192242
0.986,0.9707643293899922
0.987,1.0105903151932025
0.988,1.0470116353461947
0.989,1.0796973423050398
0.99,1.1083547977061659
0.991,1.132730822874752
0.992,1.1526087230548911
0.993,1.1678074313458717
0.994,1.1781851660449678
0.995,1.1836396864030732
0.996,1.1841082926246984
0.997,1.1795678258679718
0.998,1.1700346682446388
0.999,1.1555647428200622
1.0,1.136253513613223
1.0010000000000001,1.1122359531046018
1.002,1.0836853086050078
1.0030000000000001,1.0508127219066865
1.004,1.013868765544504
1.0050000000000001,0.9731435530069127
1.006,0.9289667387360167
1.0070000000000001,0.8817075187905591
1.008,0.8317746642402256
1.0090000000000001,0.7796165368439657
1.01,0.7257210432547738
1.0110000000000001,0.6706157514534692
1.012,0.614872631972492
1.0130000000000001,0.5591092454563632
1.014,0.5036419767482512
1.0150000000000001,0.4485914018016026
1.016,0.39424114399612503
1.0170000000000001,0.3408566874303094
1.018,0.28868537684259465
1.0190000000000001,0.23795641761127326
1.02,0.18888087575458326
1.0210000000000001,0.14165156134450624
1.022,0.09643826199605708
1.0230000000000001,0.05338607189025617
1.024,0.012621485966001694
1.025,-0.025747140197937352
1.026,-0.0616295903828889
1.027,-0.09495378773025719
1.028,-0.12566579474157716
1.029,-0.15372981327845459
1.03,-0.179128184562621
1.031,-0.20186160498498884
1.032,-0.22195828993754832
1.033,-0.23947738452869577
1.034,-0.2544970918151804
1.035,-0.2671137542138358
1.036,-0.27744185350160827
1.037,-0.28561401081553367
1.038,-0.2917809866527548
1.039,-0.29611168087050893
1.04,-0.298762463102093
1.041,-0.29967078028005134
1.042,-0.29895698559426115
1.043,-0.29674908249772697
1.044,-0.2931638229332306
1.045,-0.2883103318532658
1.046,-0.2822901072200291
1.047,-0.2751970200054311
1.048,-0.2671173141910836
1.049,-0.25812960676831376
1.05,-0.24830488773814866
1.051,-0.2377075000257261
1.052,-0.22644010833777756
1.053,-0.2146624283903183
1.054,-0.20253141246895415
1.055,-0.19019638586900958
1.056,-0.17779904689550638
1.057,-0.1654734668631847
1.058,-0.15334609009648253
1.059,-0.14153573392955587
1.06,-0.1301535887062589
1.061,-0.11930263646886964
1.062,-0.10904989117584725
1.063,-0.0994142070614231
1.064,-0.09040369345376552
1.065,-0.08201883269075855
1.066,-0.07425248011998714
1.067,-0.06708986409875053
1.068,-0.060508585994049874
1.069,-0.05447862018260022
1.07,-0.048962314050819376
1.071,-0.043914591471927444
1.072,-0.0392930710401672
1.073,-0.035062743182347644
1.074,-0.031185405176880857
1.075,-0.027640589183615956
1.076,-0.02441629761952676
1.077,-0.02150104158862158
1.078,-0.01888391465686816
1.079,-0.01655459285219838
1.08,-0.014503334664504167
1.081,-0.012720877688122375
1.082,-0.011193082834696591
1.083,-0.0098983330851834
1.084,-0.00881494538392888
1.085,-0.0079218191372421
1.086,-0.007198436213393267
1.087,-0.006624860942615173
1.088,-0.006181740117101845
1.089,-0.005850302991010004
1.09,-0.005612361280457526
1.091,-0.005450205102943003
1.092,-0.005340979797180269
1.093,-0.005253820782860087
1.094,-0.005157739129505533
1.095,-0.005022328368601841
1.096,-0.004817764493595999
1.097,-0.004514805959897176
1.098,-0.0040847936848762085
1.099,-0.0034996510478660673
1.1,-0.002731883890161468
1.101,-0.0017550234615795295
1.102,-0.0005686066906991595
1.103,0.0007884904166963087
1.104,0.002273550248707559
1.105,0.0038432727314725904
1.106,0.005453775329168463
1.107,0.0070605930440093174
1.108,0.008618673507169416
1.109,0.01008232963062108
1.11,0.011405260302159204
1.111,0.012541184383781254
1.112,0.013479352835436987
1.113,0.014264378486314023
1.114,0.014945100236717497
1.115,0.015569774524990037
1.116,0.01618607532751313
1.117,0.016841094158705192
1.118,0.017581340071023934
1.119,0.01845273965496412
1.12,0.01950063703905941
1.121,0.020769191593657903
1.122,0.02226429121067521
1.123,0.023946233164686356
1.124,0.025782567843304835
1.125,0.027722289763869812
1.1260000000000001,0.029714136793637047
1.127,0.03170682351504168
1.1280000000000001,0.03364904122570076
1.129,0.0354894579384105
1.1300000000000001,0.03717671838114898
1.131,0.03865992562212566
1.1320000000000001,0.03991966948838583
1.133,0.04098692164553538
1.1340000000000001,0.04189715455995396
1.135,0.04268581741320022
1.1360000000000001,0.04338833610201467
1.137,0.04404011323831719
1.1380000000000001,0.044676528149209895
1.139,0.04533293687697361
1.1400000000000001,0.04604467217907158
1.141,0.04684696672875526
1.1420000000000001,0.047769771728672965
1.143,0.048834467266413384
1.1440000000000001,0.050061626324577946
1.145,0.05147179860094688
1.1460000000000001,0.05308551050848276
1.147,0.05492326517532713
1.1480000000000001,0.05700554244480376
1.149,0.05935279887541526
1.1500000000000001,0.06198546774084677
1.151,0.06492358684605468
1.1520000000000001,0.06816047791808341
1.153,0.07164534118518151
1.154,0.07532322288085129
1.155,0.07913914595377547
1.156,0.08303811006781565
1.157,0.08696509160201657
1.158,0.09086504365060089
1.159,0.09468289602297468
1.16,0.09836355524372167
1.161,0.10185236144196763
1.162,0.10512899073382455
1.163,0.10823078469246344
1.164,0.11120058083440797
1.165,0.1140811933913654
1.166,0.11691541331022001
1.167,0.11974600825304016
1.168,0.12261572259707199
1.169,0.12556727743474488
1.17,0.1286433705736657
1.171,0.13188635673084304
1.172,0.13531332246793298
1.173,0.13889825322396776
1.174,0.14261091208167834
1.175,0.14642389019717952
1.176,0.15030843110970354
1.177,0.15423317372413325
1.178,0.15816673723167468
1.179,0.16207772110986393
1.18,0.16593470512256045
1.181,0.16970648859083134
1.182,0.17338169874486903
1.183,0.1769833651526559
1.184,0.1805379318170742
1.185,0.18407182302733655
1.186,0.187611443358979
1.187,0.19118317767386758
1.188,0.19481339112019164
1.189,0.1985284291324709
1.19,0.20235461743154842
1.191,0.2063181018108467
1.192,0.2104310269746349
1.193,0.21468087228531071
1.194,0.21905258702646566
1.195,0.2235311007680215
1.196,0.22810132336622313
1.197,0.23274814496364593
1.198,0.23745643598918853
1.199,0.24221104715808003
1.2,0.24699680947187208
1.201,0.25179858404630173
1.202,0.2566057924000318
1.203,0.261416042552693
1.204,0.26622777610952664
1.205,0.27103941496210515
1.206,0.2758493612883237
1.207,0.28065599755240783
1.208,0.2854576865051554
1.209,0.29025278510567465
1.21,0.29503968198164915
1.211,0.29981672349850047
1.212,0.30457890157023126
1.213,0.30931511517282106
1.214,0.314013598972427
1.215,0.3186625679215377
1.216,0.32325021725896413
1.217,0.3277647221273136
1.218,0.33219423565063083
1.219,0.3365268903802226
1.22,0.34075079915225925
1.221,0.34485417234644067
1.222,0.3488372044931125
1.223,0.35272229252085785
1.224,0.3565342208514758
1.225,0.36029775419309656
1.226,0.3640376375401729
1.227,0.36777859617348796
1.228,0.3715453356601483
1.229,0.3753625418535912
1.23,0.37925488089357584
1.231,0.3832468091731236
1.232,0.3873421908164617
1.233,0.39150615563637375
1.234,0.3956995340268548
1.235,0.39988313666823044
1.236,0.40401775452714916
1.237,0.40806415885659003
1.238,0.4119831011958554
1.239,0.4157353133705777
1.24,0.4192815074927129
1.241,0.42258258505174884
1.242,0.4256233998323694
1.243,0.42843464539333226
1.244,0.4310521684551643
1.245,0.4335117960247224
1.246,0.4358493353951873
1.247,0.4381005741460689
1.248,0.44030128014320186
1.249,0.4424872015387499
1.25,0.44469406677120044
1.2510000000000001,0.4469574124478221
1.252,0.44929182552590696
1.2530000000000001,0.45167116829740644
1.254,0.4540645987902171
1.2550000000000001,0.4564433914421495
1.256,0.45878013139499224
1.2570000000000001,0.4610459090566269
1.258,0.4632118753280215
1.2590000000000001,0.4652492416661958
1.26,0.46712928008421795
1.2610000000000001,0.4688234072410011
1.262,0.4703139635898722
1.2630000000000001,0.4716048289318902
1.264,0.4727024653847685
1.2650000000000001,0.47361339562227195
1.266,0.4743442028742134
1.2670000000000001,0.4749015309264573
1.268,0.4752920841209167
1.2690000000000001,0.4755226273555554
1.27,0.4755999860843861
1.2710000000000001,0.47553106563483827
1.272,0.4753254875581713
1.2730000000000001,0.47499827237779624
1.274,0.4745651405201399
1.2750000000000001,0.47404187296767963
1.276,0.4734443112589415
1.2770000000000001,0.4727883574885023
1.278,0.47208997430698857
1.2790000000000001,0.4713651849210764
1.28,0.47063007309349175
1.281,0.46990069163955916
1.282,0.4691797432780755
1.283,0.46844258223489726
1.284,0.46766127512973027
1.285,0.4668079491383321
1.286,0.46585479199250907
1.287,0.46477405198011745
1.288,0.46353803794506365
1.289,0.4621191192873041
1.29,0.46048972596284393
1.291,0.45862242770537387
1.292,0.45650225598667227
1.293,0.4541400737615469
1.294,0.45155001517154225
1.295,0.4487462749142551
1.296,0.4457431082433295
1.297,0.44255483096846226
1.298,0.43919581945539676
1.299,0.43568051062592933
1.3,0.4320234019579033
1.301,0.4282390692913232
1.302,0.4243451320851375
1.303,0.4203655736846833
1.304,0.4163252388187045
1.305,0.4122490327719965
1.306,0.4081619213854032
1.307,0.4040889310558197
1.308,0.40005514873618914
1.309,0.39608572131921416
1.31,0.39220582597767
1.311,0.388440559603138
1.312,0.38479757530435327
1.313,0.3812469831946953
1.314,0.3777540823819277
1.315,0.37428423252986737
1.316,0.37080285385837763
1.317,0.3672754271433747
1.318,0.36366749371682194
1.319,0.3599446554667353
1.32,0.3560725748371773
1.321,0.35201707520823156
1.322,0.34776342698278245
1.323,0.3433393197725854
1.324,0.3387780989401663
1.325,0.33411317040410454
1.326,0.3293780006390255
1.327,0.324606116675609
1.328,0.3198311061005796
1.329,0.31508661705671637
1.33,0.31040635824284424
1.331,0.3058240177744859
1.332,0.30135646003001837
1.333,0.2969830934751104
1.334,0.292678334784398
1.335,0.2884127319452986
1.336,0.2841546849172893
1.337,0.27987711964267037
1.338,0.2755529390794921
1.339,0.2711550012484119
1.34,0.26665611923268745
1.341,0.2620291300682995
1.342,0.25726231072361244
1.343,0.252378884601329
1.344,0.24740683408907607
1.345,0.24237409663708812
1.346,0.23730856475819925
1.347,0.23223808602785131
1.348,0.2271904630840854
1.349,0.2221934536275505
1.35,0.21727477042149484
1.351,0.21246203756694418
1.352,0.20777218912972836
1.353,0.2031976497379002
1.354,0.19872737533286847
1.355,0.1943502769186491
1.356,0.19005522056185795
1.357,0.18583102739171822
1.358,0.18166647360005292
1.359,0.1775502904412926
1.36,0.17347116423246706
1.361,0.16941776698774863
1.362,0.16538682707445457
1.363,0.16139396414328888
1.364,0.1574574541120372
1.365,0.15359552796109277
1.366,0.14982637173344848
1.367,0.14616812653470454
1.368,0.14263888853306111
1.369,0.13925670895932551
1.37,0.13603959410690514
1.371,0.13300545015806714
1.372,0.13015624066118353
1.373,0.1274560883018478
1.374,0.12486357571306772
1.375,0.12233724059045754
1.3760000000000001,0.11983557569223198
1.377,0.11731702883921276
1.3780000000000001,0.11474000291482181
1.379,0.11206285586508766
1.3800000000000001,0.10924390069863976
1.381,0.10624147742002864
1.3820000000000001,0.10303653921783039
1.383,0.09966478743058534
1.3840000000000001,0.09616999732764332
1.385,0.09259589924096058
1.3860000000000001,0.08898617856509441
1.387,0.085384475757208
1.3880000000000001,0.08183438633706588
1.389,0.07837946088703832
1.3900000000000001,0.07506320505209697
1.391,0.07192904889673363
1.3920000000000001,0.0690097884754638
1.393,0.06631212714390149
1.3940000000000001,0.06383879008990911
1.395,0.06159245756395504
1.3960000000000001,0.05957576487910858
1.397,0.05779130241104544
1.3980000000000001,0.05624161559804243
1.399,0.054929204940981836
1.4000000000000001,0.05385652600334783
1.401,0.05302593667614335
1.4020000000000001,0.05241968144509067
1.403,0.05196974214750753
1.4040000000000001,0.05160032856438105
1.405,0.05123560553930366
1.4060000000000001,0.05079969297846988
1.407,0.050216665850679076
1.408,0.04941055418733331
1.409,0.048305343082438196
1.41,0.04682497695280811
1.411,0.04489351003967109
1.412,0.04248146550450867
1.413,0.039677661370109335
1.414,0.0365894250611013
1.415,0.033324039064715524
1.416,0.02998874093078785
1.417,0.026690723271756152
1.418,0.02353713376266318
1.419,0.020635113278505847
1.42,0.018095408751118702
1.421,0.016027842608273415
1.422,0.01449534061860072
1.423,0.013445178976879994
1.424,0.012806166428783579
1.425,0.012507120979284374
1.426,0.012476869892658208
1.427,0.01264424969248162
1.428,0.012938106161633595
1.429,0.013287294342294
1.43,0.013620678535945459
1.431,0.013867173787154914
1.432,0.01397734671418236
1.433,0.013958796852923344
1.434,0.013828414247480096
1.435,0.013603098201255576
1.436,0.013299757276955383
1.437,0.012935309296586171
1.438,0.01252668134145649
1.439,0.01209080975217663
1.44,0.011644640128658849
1.441,0.011205121252829721
1.442,0.010785653683751105
1.443,0.010390110432767725
1.444,0.010020792389163185
1.445,0.009680009701522378
1.446,0.009370081777732287
1.447,0.009093337284981328
1.448,0.008852114149759872
1.449,0.008648759557859657
1.45,0.00848562995437446
1.451,0.008365085465485042
1.452,0.00828581046253377
1.453,0.008236447145535217
1.454,0.008203949036874575
1.455,0.00817527891823882
1.456,0.00813740883061667
1.457,0.008077320074298202
1.458,0.007982003208875715
1.459,0.007838458053242745
1.46,0.007633693685594998
1.461,0.007354740066452755
1.462,0.006997356503286567
1.463,0.006581513909975516
1.464,0.006131357220104211
1.465,0.005671040626558935
1.466,0.005224727581527531
1.467,0.004816590796499733
1.468,0.004470812242266812
1.469,0.004211583148921741
1.47,0.004063104005859354
1.471,0.004049570266652994
1.472,0.004182921452244113
1.473,0.004440466317754806
1.474,0.004793450910239349
1.475,0.0052131305360534775
1.476,0.0056707697608547256
1.477,0.006137642409602425
1.478,0.006585031566557598
1.479,0.006984229575282816
1.48,0.007306538038642443
1.481,0.007523279953123829
1.482,0.0076177863743112
1.483,0.007607882437717924
1.484,0.007517559674141137
1.485,0.00737081887367954
1.486,0.007191670085733444
1.487,0.007004132619004958
1.488,0.006832235041498059
1.489,0.00670001518051818
1.49,0.0066315201226725285
1.491,0.006650796578409975
1.492,0.006770825101912872
1.493,0.006972202194069082
1.494,0.007229642635228923
1.495,0.007517870465044537
1.496,0.007811618982469685
1.497,0.008085630745759891
1.498,0.008314657572472321
1.499,0.008473460539465997
1.5,0.008536809982901407
1.5010000000000001,0.00847949431796227
1.502,0.008288209435789368
1.5030000000000001,0.007985076602238163
1.504,0.007598786244574007
1.5050000000000001,0.007158038049364185
1.506,0.006691540962477354
1.5070000000000001,0.006228013189084076
1.508,0.005796182193656494
1.5090000000000001,0.005424784699968635
1.51,0.0051425666907638
1.5110000000000001,0.004978267671766422
1.512,0.004950951610022198
1.5130000000000001,0.005050444980082031
1.514,0.005260394669791252
1.5150000000000001,0.0055646186830008385
1.516,0.005947381973583018
1.5170000000000001,0.006392949907924442
1.518,0.006885588264926013
1.5190000000000001,0.007409563236003537
1.52,0.007949141425086848
1.5210000000000001,0.008488590116364946
1.522,0.00901269172126568
1.5230000000000001,0.009507816101525759
1.524,0.00996063843655914
1.5250000000000001,0.010357834318294247
1.526,0.010686079751173803
1.5270000000000001,0.010932051152155278
1.528,0.01108242535071049
1.5290000000000001,0.011123879588825684
1.53,0.011043091521001441
1.5310000000000001,0.010826743733004598
1.532,0.010472100711807318
1.5330000000000001,0.010009635490478027
1.534,0.009476318931971175
1.5350000000000001,0.00890912231175605
1.536,0.008345017317816141
1.537,0.00782097605064951
1.538,0.007373971023268741
1.539,0.007040975161200782
1.54,0.006858961802487259
1.541,0.0068648992963322095
1.542,0.007080097425761797
1.543,0.007475845092966972
1.544,0.008013464788075604
1.545,0.008654279413729794
1.546,0.00935961228508657
1.547,0.010090787129816807
1.548,0.01080912808810651
1.549,0.01147595971265561
1.55,0.012052606968678992
1.551,0.012500398986040814
1.552,0.012794390055203294
1.553,0.01295426271329691
1.554,0.013008755173537171
1.555,0.012986606061653992
1.556,0.01291655441589189
1.557,0.012827339687009819
1.558,0.012747701738281282
1.559,0.012706380845493947
1.56,0.012732117696950193
1.561,0.012853651008182821
1.562,0.01308846177429135
1.563,0.01341676708170098
1.564,0.013811084785295503
1.565,0.014243933152472842
1.566,0.014687830863145611
1.567,0.015115297009741055
1.568,0.015498851097200495
1.569,0.015811013042980007
1.57,0.01602430317705018
1.571,0.016111244187137053
1.572,0.016056529110279154
1.573,0.015885858138795974
1.574,0.015633559767338864
1.575,0.015333962903072882
1.576,0.015021396865678218
1.577,0.014730191387349411
1.578,0.014494676612795148
1.579,0.014349183099238891
1.58,0.014328041816418483
1.581,0.014465582588769007
1.582,0.014782784760302505
1.583,0.015254831700925304
1.584,0.01584709551896463
1.585,0.0165249487352623
1.586,0.017253764283174464
1.587,0.017998915508571585
1.588,0.018725776169838875
1.589,0.019399720437875946
1.59,0.019986122896096945
1.591,0.020450359514568417
1.592,0.020769723453853528
1.593,0.020963122969539928
1.594,0.021058545201399888
1.595,0.02108397770171929
1.596,0.021067408435299292
1.597,0.021036825779455166
1.598,0.02102021852401665
1.599,0.02104557587132802
1.6,0.021140887436247834
1.601,0.02133414264868705
1.602,0.02164233211402488
1.603,0.022043342148521394
1.604,0.022506373036861517
1.605,0.023000625476244527
1.606,0.023495300576384347
1.607,0.02395959985950898
1.608,0.024362725260361436
1.609,0.024673879126198756
1.61,0.02486226421679273
1.611,0.024897084399660374
1.612,0.024761566218570816
1.613,0.024489667779475748
1.614,0.024126819716472014
1.615,0.023718453076170744
1.616,0.02330999931769755
1.617,0.02294689031269271
1.618,0.02267455834531089
1.619,0.022538436112221012
1.62,0.02258395672260681
1.621,0.022856553343272384
1.622,0.02338285463654074
1.623,0.024120195221007557
1.624,0.02500995596778155
1.625,0.025993518407992636
1.6260000000000001,0.02701226448528512
1.627,0.0280075765558178
1.6280000000000001,0.02892083738826401
1.629,0.029693430163811544
1.6300000000000001,0.030266738476162566
1.631,0.030582146503727353
1.6320000000000001,0.030599896001927387
1.633,0.0303509809830319
1.6340000000000001,0.02988298627811077
1.635,0.029243497130748412
1.6360000000000001,0.028480099197043706
1.637,0.027640378545609717
1.6380000000000001,0.02677192165757453
1.639,0.025922315426580037
1.6400000000000001,0.025140051284432155
1.641,0.024474760666634548
1.6420000000000001,0.023963232910985763
1.643,0.023601977604994023
1.6440000000000001,0.023377938042307388
1.645,0.0232780892110509
1.6460000000000001,0.02328943779382692
1.647,0.02339902216771526
1.6480000000000001,0.023593912404272846
1.649,0.023861210269533962
1.6500000000000001,0.024188049224010116
1.651,0.02456159442255526
1.6520000000000001,0.024968872384474636
1.653,0.025396278826219497
1.6540000000000001,0.025830080110782062
1.655,0.026256574295631142
1.6560000000000001,0.026662091132713315
1.657,0.027032992068452076
1.6580000000000001,0.02735567024374856
1.659,0.02761655049398096
1.6600000000000001,0.027802089349004803
1.661,0.02789877503341821
1.6620000000000001,0.02790034607284922
1.663,0.02782915962150141
1.6640000000000001,0.02771468010273155
1.665,0.027586403634373972
1.666,0.02747385802874027
1.667,0.02740660279261934
1.668,0.027414229127277225
1.669,0.02752635992845752
1.67,0.0277726497863807
1.671,0.028182784985745092
1.672,0.028772925230978193
1.673,0.029504592923528822
1.674,0.030325565060889625
1.675,0.031183650334771048
1.676,0.0320266891313603
1.677,0.03280255353132265
1.678,0.03345914730979998
1.679,0.03394440593641178
1.68,0.03420629657525468
1.681,0.03419281808490291
1.682,0.03387247356983435
1.683,0.03329784665397231
1.684,0.032543118666192535
1.685,0.03168250264355509
1.686,0.030790243317597422
1.687,0.02994061711433438
1.688,0.029207932154257724
1.689,0.028666528252336863
1.69,0.028390776918018168
1.691,0.028455081355225852
1.692,0.02891282285005566
1.693,0.0297294087010112
1.694,0.030847286389721118
1.695,0.03220893502271685
1.696,0.033756865401006794
1.697,0.035433620020076995
1.698,0.03718177306989029
1.699,0.038943930434887516
1.7,0.040662729693985794
1.701,0.04228084012058066
1.702,0.043751748415357464
1.703,0.04507487803404847
1.704,0.046261894567413905
1.705,0.04732449540226074
1.706,0.048274409619871755
1.707,0.04912339799600835
1.708,0.0498832530009079
1.709,0.050565798799286354
1.71,0.05118289125033579
1.711,0.05174641790772669
1.712,0.05227193689451748
1.713,0.05279080509165889
1.714,0.053338679954373254
1.715,0.05395125068101192
1.716,0.05466290580468362
1.717,0.05550356638375459
1.718,0.0565091175171091
1.719,0.057716097625240374
1.72,0.059160862308734075
1.721,0.06087958434827147
1.722,0.06289769047990593
1.723,0.0651938153659539
1.724,0.06773355945353865
1.725,0.0704823399622358
1.726,0.07340539129171308
1.727,0.07646776502173422
1.728,0.07963432991215512
1.729,0.08286977190292767
1.73,0.0861385941140957
1.731,0.0894051168457996
1.732,0.0926398340661867
1.733,0.09584161524699178
1.734,0.09901716384493972
1.735,0.1021730009113381
1.736,0.10531546467758585
1.737,0.10845071055517849
1.738,0.11158471113570274
1.739,0.11472325619084273
1.74,0.11787195267237305
1.741,0.12103622471216613
1.742,0.1242245722692005
1.743,0.12746021978075683
1.744,0.1307704692356867
1.745,0.134182440136698
1.746,0.13772306916658897
1.747,0.14141911018825537
1.748,0.145297134244684
1.749,0.14938352955895878
1.75,0.1537045015342543
1.7510000000000001,0.1582860727538429
1.752,0.16313971803005967
1.7530000000000001,0.16820981502130378
1.754,0.17342108991343105
1.7550000000000001,0.17869808388397737
1.756,0.18396515529056834
1.7570000000000001,0.1891464796709281
1.758,0.19416604974287047
1.7590000000000001,0.19894767540430774
1.76,0.20341498373324196
1.7610000000000001,0.20749141898777332
1.762,0.21112425005339575
1.7630000000000001,0.2143744364791066
1.764,0.21733648331882718
1.7650000000000001,0.22010471802158005
1.766,0.2227732852164776
1.7670000000000001,0.22543614671273024
1.768,0.22818708149963848
1.7690000000000001,0.2311196857466008
1.77,0.23432737280310606
1.7710000000000001,0.23790337319874105
1.772,0.2419158702241596
1.7730000000000001,0.2463127691254577
1.774,0.25100558140572776
1.7750000000000001,0.25590562830199126
1.776,0.2609240482313601
1.7770000000000001,0.2659717967910438
1.778,0.27095964675834244
1.7790000000000001,0.27579818809065365
1.78,0.2803978279254656
1.7810000000000001,0.28466879058036404
1.782,0.2885390573052441
1.7830000000000001,0.2920261710898979
1.784,0.29517257519277806
1.7850000000000001,0.2980204307918814
1.786,0.30061214639227274
1.7870000000000001,0.302990377826091
1.788,0.3051980282525438
1.7890000000000001,0.3072782481579119
1.79,0.30927443535554516
1.7910000000000001,0.31123023498586677
1.792,0.3131792033072111
1.793,0.31510337347610934
1.794,0.31696885134430874
1.795,0.3187419846482827
1.796,0.3203893684515767
1.797,0.32187784514480666
1.798,0.32317450444566054
1.799,0.32424668339889656
1.8,0.32506196637634494
1.801,0.3255881850769061
1.802,0.3257996327102586
1.803,0.3257025461268587
1.804,0.3253134894225692
1.805,0.3246492782275181
1.806,0.3237269754989037
1.807,0.3225638915209969
1.808,0.32117758390513795
1.809,0.31958585758973984
1.81,0.3178067648402859
1.811,0.3158586052493307
1.812,0.3137585471521431
1.813,0.31151684414750797
1.814,0.30914167554242816
1.815,0.3066414659758442
1.816,0.3040248874137655
1.817,0.30130085914927546
1.818,0.29847854780252536
1.819,0.29556736732074096
1.82,0.29257697897821616
1.821,0.28951729137631876
1.822,0.2863960656321805
1.823,0.28320864112454414
1.824,0.2799464307422445
1.825,0.2766010911991461
1.826,0.2731645194893859
1.827,0.26962885675177456
1.828,0.2659864914366571
1.829,0.2622300593214537
1.83,0.2583524435106517
1.831,0.2543467744358135
1.832,0.25020794816999054
1.833,0.24593928864214637
1.834,0.2415471100344814
1.835,0.23703797585236397
1.836,0.23241869692823006
1.837,0.2276963314215903
1.838,0.222878184819023
1.839,0.21797180993418114
1.84,0.21298500690778505
1.841,0.20792582320763028
1.842,0.20280519827907867
1.843,0.19764883166635402
1.844,0.19248762256263582
1.845,0.18735272172275164
1.846,0.1822755272285966
1.847,0.17727562956359894
1.848,0.17236736200248143
1.849,0.16757616583641524
1.85,0.16292732257688183
1.851,0.15844594521022454
1.852,0.15415162604248753
1.853,0.15003387377097951
1.854,0.14607163999323522
1.855,0.1422436974454122
1.856,0.13852865033852083
1.857,0.1349049343584325
1.858,0.13135081666587126
1.859,0.12784439589642202
1.86,0.12436360216052264
1.861,0.12088619704347181
1.862,0.1173937795070889
1.863,0.11389058652203501
1.864,0.11038874613319255
1.865,0.10690022711048984
1.866,0.10343682969870929
1.867,0.10001018561749316
1.868,0.09663175806133736
1.869,0.09331284169959801
1.87,0.09006456267648474
1.871,0.08689787861106713
1.872,0.08382214632416359
1.873,0.0808382479310914
1.874,0.07794391009322234
1.875,0.07513668702303089
1.8760000000000001,0.07241396440784632
1.877,0.06977295940985688
1.8780000000000001,0.06721072066610533
1.879,0.06472412828849369
1.8800000000000001,0.06230989386377865
1.881,0.059964560453575504
1.8820000000000001,0.05768385937895434
1.883,0.055459553567717125
1.8840000000000001,0.053281847015010535
1.885,0.05114077311497611
1.8860000000000001,0.04902619673661066
1.887,0.0469278142237696
1.8880000000000001,0.04483515339516317
1.889,0.04273757354436048
1.8900000000000001,0.04062426543978572
1.891,0.03848425132472143
1.8920000000000001,0.036312381525621065
1.893,0.034139426891383155
1.8940000000000001,0.032009426043763015
1.895,0.029966271733111127
1.8960000000000001,0.028053688184633815
1.897,0.02631523109839537
1.8980000000000001,0.02479428764931587
1.899,0.023534076487173105
1.9000000000000001,0.02257764773660102
1.901,0.021967882997091168
1.9020000000000001,0.021733835315179972
1.903,0.021820636075965013
1.9040000000000001,0.02214152206394393
1.905,0.022609501483169904
1.9060000000000001,0.023137414012551354
1.907,0.02363880846071962
1.9080000000000001,0.024054916016096183
1.909,0.02429320034136835
1.9100000000000001,0.024241518462019676
1.911,0.02378929589830585
1.9120000000000001,0.022844161887956457
1.913,0.021419229864085933
1.9140000000000001,0.019569231975254536
1.915,0.017350555720487392
1.9160000000000001,0.014821157254698337
1.917,0.012040561227573965
1.9180000000000001,0.00906986078357114
1.919,0.005971717561920027
1.92,0.002810361696620831
1.921,-0.00034840818355458725
1.922,-0.003450323564049723
1.923,-0.006522916454818601
1.924,-0.009624837979311861
1.925,-0.012813247559004273
1.926,-0.016143736120595855
1.927,-0.01967032609601858
1.928,-0.023445471422428997
1.929,-0.027520057542216075
1.93,-0.031943401402992955
1.931,-0.03676325145760574
1.932,-0.042018963777076354
1.933,-0.047704070797530675
1.934,-0.05379288444755594
1.935,-0.06025810228160362
1.936,-0.06707085335934782
1.937,-0.07420438910404048
1.938,-0.08164291911630468
1.939,-0.08927961744522059
1.94,-0.09698876787184413
1.941,-0.10464573019075585
1.942,-0.11212862682665779
1.943,-0.11932780242155809
1.944,-0.12613920024876965
1.945,-0.13245985254585968
1.946,-0.1381878675639074
1.947,-0.1432224295675154
1.948,-0.1474637988347996
1.949,-0.15081331165739795
1.95,-0.15317338034046302
1.951,-0.15444749320266787
1.952,-0.15454135539399508
1.953,-0.1533694311168496
1.954,-0.15085043167830053
1.955,-0.14690415436497692
1.956,-0.14145147247702883
1.957,-0.13441433532812017
1.958,-0.1257157682454384
1.959,-0.11527987256968195
1.96,-0.10303182565507575
1.961,-0.08889788086935259
1.962,-0.07280264396968103
1.963,-0.054653102884276245
1.964,-0.03434947340072387
1.965,-0.011793020346485559
1.966,0.013113915437439831
1.967,0.04048331575873611
1.968,0.07043733955649074
1.969,0.10292248582000348
1.97,0.1378504765289175
1.971,0.17511835916249377
1.972,0.21460651283950163
1.973,0.25616669422826543
1.974,0.29963002951759854
1.975,0.34481294808396157
1.976,0.3915172048033627
1.977,0.4395298800514391
1.978,0.4886233797033738
1.979,0.5385554351339803
1.98,0.589069103217616
1.981,0.6398927663282711
1.982,0.6907376977952656
1.983,0.7412831372979873
1.984,0.7911861108067126
1.985,0.8400889391028085
1.986,0.8876192684671856
1.987,0.9333900706803863
1.988,0.9769996430224976
1.989,1.0180316082732357
1.99,1.0560549147118656
1.991,1.0906238361172766
1.992,1.1212860119282961
1.993,1.1476328460414844
1.994,1.1692668806569488
1.995,1.1857760973135087
1.996,1.1967057981713771
1.997,1.2017644347465353
1.998,1.2012206940974732
1.999,1.1953964125250325
2.0,1.184616945309175
2.001,1.169211166708976
2.0020000000000002,1.1495011462695315
2.003,1.1257359775455555
2.004,1.098133910786119
2.005,1.0669165514758963
2.0060000000000002,1.032309024078664
2.007,0.9945399720373614
2.008,0.9538415577739983
2.009,0.910449462689715
2.0100000000000002,0.8646028871647475
2.011,0.8165445505585103
2.012,0.7665274543011955
2.013,0.7148592089721884
2.0140000000000002,0.6618742831363792
2.015,0.6079107832366483
2.016,0.5533103341434246
2.017,0.4984180796997894
2.0180000000000002,0.4435826827279178
2.019,0.3891563250291726
2.02,0.3354947073839596
2.021,0.28295704955182643
2.0220000000000002,0.23190480166529925
2.023,0.1826930075742507
2.024,0.13567561939657236
2.025,0.09121008277000689
2.0260000000000002,0.04948133464231324
2.027,0.010295668336060597
2.028,-0.026332325011889764
2.029,-0.060385522339017436
2.0300000000000002,-0.09185467524711861
2.031,-0.1207384104687528
2.032,-0.14704213371833985
2.033,-0.170770516741531
2.0340000000000003,-0.1919320396932058
2.035,-0.21054303376992803
2.036,-0.22662770529909423
2.037,-0.2402181357388941
2.0380000000000003,-0.2513542816783264
2.039,-0.2600839748371792
2.04,-0.26646292206605976
2.041,-0.27055470534637316
2.0420000000000003,-0.272436889009779
2.043,-0.272243826825847
2.044,-0.270141242146423
2.045,-0.26630288242965194
2.0460000000000003,-0.26091037026448083
2.047,-0.2541532033706668
2.048,-0.2462287545987646
2.049,-0.23734227193013516
2.05,-0.2277068784769429
2.051,-0.2175435724821521
2.052,-0.2070726242584158
2.053,-0.19645190620717137
2.054,-0.18581284619691651
2.055,-0.17528740814456237
2.056,-0.16491188650806624
2.057,-0.15469340207960358
2.058,-0.14464326001752228
2.059,-0.13476791080650516
2.06,-0.12506895025758955
2.061,-0.11554311950813795
2.062,-0.10618630536112864
2.063,-0.09702286848954049
2.064,-0.08808886412754574
2.065,-0.07941561237304486
2.066,-0.07102957865028219
2.067,-0.06295237370983896
2.068,-0.05520075362864651
2.069,-0.04778661980996543
2.07,-0.040717018983399654
2.071,-0.03399414320489064
2.072,-0.027618730254744494
2.073,-0.021615561701501
2.074,-0.01601915346782951
2.075,-0.01085927896488636
2.076,-0.006160856930173214
2.077,-0.0019439514275259844
2.078,0.001776228152878017
2.079,0.004989327094522031
2.08,0.007689845354546717
2.081,0.00987713756375612
2.082,0.011562439636139477
2.083,0.01282276207201445
2.084,0.013771231369970167
2.085,0.014468970216305081
2.086,0.01494390254498997
2.087,0.01525990137884205
2.088,0.015480378477099285
2.089,0.015668284335423725
2.09,0.015886108185899278
2.091,0.016195877997032822
2.092,0.016653022339242478
2.093,0.017258213162884735
2.094,0.017983331337095128
2.095,0.01879955095868452
2.096,0.01967758486088542
2.097,0.020587684613353467
2.098,0.021499640522166723
2.099,0.022382781629825876
2.1,0.023205975715253114
2.101,0.023937629293794234
2.102,0.024549311071558902
2.103,0.025044833000796886
2.104,0.025444892946081255
2.105,0.025769886741667643
2.106,0.02603974895823391
2.107,0.026273952902880524
2.108,0.026491510619129723
2.109,0.026710972886926705
2.11,0.026950429222639377
2.111,0.027227507879057984
2.112,0.02755815919278616
2.113,0.027946666068978183
2.114,0.02839080784922136
2.115,0.028887844688232578
2.116,0.029434578042811313
2.117,0.030027348663176523
2.118,0.030662839359157763
2.119,0.031346656221690215
2.12,0.03208058343189315
2.121,0.0328642638856575
2.122,0.033697785222937454
2.123,0.03458554238867578
2.124,0.03553428431960536
2.125,0.03655076918011257
2.126,0.03764174006999442
2.1270000000000002,0.038813925024460204
2.128,0.04007403701412907
2.129,0.04142877394503303
2.13,0.04288481865861525
2.1310000000000002,0.0444488389317307
2.132,0.0461255613361367
2.133,0.047901215890552164
2.134,0.04975172119593815
2.1350000000000002,0.051652869425973774
2.136,0.05358043768974795
2.137,0.05551018803176257
2.138,0.05741786743193075
2.1390000000000002,0.05927920780557752
2.14,0.06106992600343744
2.141,0.0627657238116586
2.142,0.06434530736696406
2.1430000000000002,0.06581694292923736
2.144,0.06720562927080247
2.145,0.06853654091861039
2.146,0.06983483733502305
2.1470000000000002,0.07112566291781441
2.148,0.07243414700016751
2.149,0.07378540385067936
2.15,0.07520453267335753
2.1510000000000002,0.0767166176076221
2.152,0.07834534207359019
2.153,0.080100517453226
2.154,0.08198396459532109
2.1550000000000002,0.08399739367157444
2.156,0.08614249978909318
2.157,0.08842096299039909
2.158,0.09083444825342454
2.1590000000000003,0.09338460549151442
2.16,0.09607306955342158
2.161,0.09890146022331385
2.162,0.10187041042490758
2.1630000000000003,0.10497061481987256
2.164,0.1081869481884568
2.165,0.1115041971099791
2.166,0.11490867105806482
2.1670000000000003,0.11838984861528026
2.168,0.12193188420483535
2.169,0.12551846475233497
2.17,0.1291332536341409
2.1710000000000003,0.1327598906773741
2.172,0.13638281725211546
2.173,0.13999505513976013
2.174,0.14359471786472638
2.1750000000000003,0.14717996306050618
2.176,0.1507489248113444
2.177,0.15429971365224862
2.178,0.15783041656898272
2.179,0.16133909699806798
2.18,0.16482379482678525
2.181,0.16828252639316854
2.182,0.17171438113054865
2.183,0.17513010481620314
2.184,0.1785474768798767
2.185,0.18198435109009603
2.186,0.18545855766615119
2.187,0.18898790327808748
2.188,0.19259017104671064
2.189,0.1962831205435784
2.19,0.20008448779101157
2.191,0.20401198526208691
2.192,0.208081144862819
2.193,0.21228400764722224
2.194,0.21659818107654086
2.195,0.22100103966676657
2.196,0.2254699343846505
2.197,0.2299821926476959
2.198,0.23451511832416977
2.199,0.23904599173309476
2.2,0.24355206964425324
2.201,0.24801058527817987
2.202,0.2524006070564408
2.203,0.25672183974163454
2.204,0.2609868567107038
2.205,0.2652084038621524
2.206,0.2693992035452467
2.207,0.2735719545600098
2.208,0.2777393321572242
2.209,0.28191398803842455
2.21,0.2861085503559085
2.211,0.2903356237127301
2.212,0.29460621217444255
2.213,0.29891338625035735
2.214,0.30323883555493353
2.215,0.3075640455918765
2.216,0.31187048043596466
2.217,0.3161395834967125
2.218,0.32035277484075353
2.219,0.32449145098547716
2.22,0.32853698489903305
2.221,0.3324707260003219
2.222,0.3362762817115648
2.223,0.339963716192202
2.224,0.34356013382505934
2.225,0.34709289893003953
2.226,0.35058935227780913
2.227,0.35407681108979033
2.228,0.3575825690381654
2.229,0.36113389624586806
2.23,0.364758039336642
2.231,0.3684822231294925
2.232,0.3723306015614813
2.233,0.3762911299845952
2.234,0.3803280525157801
2.235,0.3844051789541329
2.236,0.38848629554951025
2.237,0.3925351650025211
2.238,0.3965155264645375
2.239,0.40039109553768765
2.24,0.40412556427485874
2.241,0.4076826011796916
2.242,0.41102828661083046
2.243,0.41415821082345555
2.244,0.41708759107105753
2.245,0.41983197645035275
2.246,0.42240689250882013
2.247,0.42482784124469397
2.248,0.42711030110696824
2.249,0.42926972699539095
2.25,0.4313215502604712
2.251,0.4332811787034753
2.2520000000000002,0.4351631769717525
2.253,0.4369719242096053
2.254,0.43870490571658205
2.255,0.44035945375689034
2.2560000000000002,0.4419328770454975
2.257,0.44342246074812547
2.258,0.44482546648125654
2.259,0.4461388682012662
2.2600000000000002,0.4473615029424056
2.261,0.44849379459078287
2.262,0.44953604127983215
2.263,0.45048646955803534
2.2640000000000002,0.45134189409791664
2.265,0.45209913693887455
2.266,0.45275505589874104
2.267,0.4533065445737808
2.2680000000000002,0.45375053233868956
2.269,0.4540839843465959
2.27,0.4543039015290606
2.271,0.45440732059607686
2.2720000000000002,0.454391685803267
2.273,0.4542592980133958
2.274,0.4540158587076844
2.275,0.45366717386175187
2.2760000000000002,0.45321908522964854
2.277,0.4526774703438586
2.278,0.4520482425152969
2.279,0.4513373508333119
2.2800000000000002,0.4505507801656826
2.281,0.4496945511586226
2.282,0.4487735910475266
2.283,0.4477778843035213
2.2840000000000003,0.44668682884230687
2.285,0.4454796327945719
2.286,0.4441355400694364
2.287,0.44263383035445225
2.2880000000000003,0.4409538191156037
2.289,0.4390748575973087
2.29,0.4369763328224159
2.291,0.43463766759220646
2.2920000000000003,0.43204071296107116
2.293,0.4291998256425846
2.294,0.42615279347940394
2.295,0.4229379563158256
2.2960000000000003,0.41959368977457745
2.297,0.41615840525682235
2.298,0.41267054994215285
2.299,0.4091686067885944
2.3000000000000003,0.40569109453260305
2.301,0.4022765676890723
2.302,0.3989609467076133
2.303,0.39574310862939893
2.3040000000000003,0.39259482259112805
2.305,0.3894872715654359
2.306,0.3863916743033865
2.307,0.3832792853344769
2.308,0.3801213949666366
2.309,0.37688932928622565
2.31,0.37355445015804145
2.311,0.37008815522530886
2.312,0.36646358498854337
2.313,0.3626781813643407
2.314,0.3587474693222672
2.315,0.3546874387424438
2.316,0.3505141135137097
2.317,0.34624353614557435
2.318,0.3418917752882066
2.319,0.33747493526317346
2.32,0.3330091561704759
2.321,0.328510613888545
2.322,0.3239941852425403
2.323,0.3194553586223105
2.324,0.31487498121408247
2.325,0.31023357403281177
2.326,0.3055116938718926
2.327,0.300689933303145
2.328,0.2957489206768237
2.329,0.2906693201216129
2.33,0.28543183154463636
2.331,0.2800171906314431
2.332,0.2744088517367628
2.333,0.2686302797795909
2.334,0.2627356618139782
2.335,0.2567800050626154
2.336,0.2508183525266266
2.337,0.24490578298556728
2.338,0.23909741099743054
2.339,0.23344838689863617
2.34,0.22801389680403775
2.341,0.22284916260691925
2.342,0.21800555593680457
2.343,0.2134751852859764
2.344,0.20920394993548952
2.345,0.20513656038778086
2.346,0.20121776292372637
2.347,0.19739233960262767
2.348,0.19360510826222066
2.349,0.18980092251867142
2.35,0.18592467176658461
2.351,0.18192128117899117
2.352,0.17773872122396447
2.353,0.17337204000246537
2.354,0.16885249318076723
2.355,0.16420474467946905
2.356,0.15945810384981562
2.357,0.15464324292064768
2.358,0.1497908093494708
2.359,0.1449314258224439
2.36,0.140095690254387
2.361,0.13531417578877777
2.362,0.1306164491784041
2.363,0.12601633162044995
2.364,0.12151496664364629
2.365,0.11711311404305874
2.366,0.11281150884241754
2.367,0.10861086129410676
2.368,0.10451185687917143
2.369,0.10051515630731415
2.37,0.09662139551690213
2.371,0.09283118567495632
2.372,0.08914478448412753
2.373,0.08555703023384384
2.374,0.08205832563262203
2.375,0.07863891919508434
2.376,0.0752890346645144
2.3770000000000002,0.071998871012853
2.378,0.06875860244070493
2.379,0.06555837837732978
2.38,0.06238832348064769
2.3810000000000002,0.059238537637236674
2.382,0.05609968356061963
2.383,0.052972284588227204
2.384,0.04986505006227176
2.3850000000000002,0.04678691360683206
2.386,0.04374678407465028
2.387,0.040753545547124
2.388,0.03781605733431086
2.3890000000000002,0.034943153974927046
2.39,0.03214364523635132
2.391,0.029426316114618253
2.392,0.02679969798529469
2.3930000000000002,0.024268350086671373
2.394,0.021833476250808545
2.395,0.019496151152527782
2.396,0.01725742469531064
2.3970000000000002,0.015118322011297387
2.398,0.013079843461290184
2.399,0.011142964634747555
2.4,0.00930863634978837
2.4010000000000002,0.0075777846531894875
2.402,0.005950419484602618
2.403,0.0044107589709375455
2.404,0.002929482131552408
2.4050000000000002,0.001476805779324786
2.406,2.2921955793790433e-05
2.407,-0.0014620020688446297
2.408,-0.0030078237957340886
2.4090000000000003,-0.0046444254973602725
2.41,-0.00640171421754691
2.411,-0.008309621771461037
2.412,-0.010395851939541982
2.4130000000000003,-0.01264725499875263
2.414,-0.015015113556611228
2.415,-0.017449545710587766
2.416,-0.019900694328361813
2.4170000000000003,-0.022318718511321202
2.418,-0.024653773048079673
2.419,-0.0268560313109428
2.42,-0.02887569144355673
2.4210000000000003,-0.03066297636090872
2.422,-0.03217061590931185
2.423,-0.03339757839990302
2.424,-0.03438373145191889
2.4250000000000003,-0.0351703767367403
2.426,-0.03579884069708743
2.427,-0.03631047454702284
2.428,-0.03674665427194896
2.4290000000000003,-0.03714878062860992
2.43,-0.03755827914508895
2.431,-0.03801660012081156
2.432,-0.03856361225044351
2.433,-0.03920851388022146
2.434,-0.039932953821781504
2.435,-0.040717627242075956
2.436,-0.041543254102591624
2.437,-0.04239057913615589
2.438,-0.04324037184693705
2.439,-0.04407342651044331
2.44,-0.04487056217352439
2.441,-0.045612622654370605
2.442,-0.04628137818561521
2.443,-0.046875207903978845
2.444,-0.04740548220662815
2.445,-0.04788729608659535
2.446,-0.04833606293462483
2.447,-0.04876718878544472
2.448,-0.0491960723177682
2.449,-0.04963810485429242
2.45,-0.050108670361698984
2.451,-0.05062314545065345
2.452,-0.05119636109034979
2.453,-0.05183229722118898
2.454,-0.052524873532068354
2.455,-0.05326762251019303
2.456,-0.054054069286752764
2.457,-0.05487773163692166
2.458,-0.05573211997985809
2.459,-0.05661073737870444
2.46,-0.057507079540587605
2.461,-0.058414634816618946
2.462,-0.05932654379754
2.463,-0.060228895814195264
2.464,-0.06110113946901287
2.465,-0.061922457803169746
2.466,-0.06267202650182727
2.467,-0.06332901389413083
2.468,-0.06387258095321025
2.469,-0.06428188129617972
2.47,-0.06453606118413785
2.471,-0.06461425952216715
2.472,-0.06449723473881033
2.473,-0.06420032848009755
2.474,-0.06377196400896594
2.475,-0.06326188360624832
2.476,-0.06271982219676239
2.477,-0.06219550734930973
2.478,-0.06173865927667659
2.479,-0.0613989908356331
2.48,-0.061226207526934
2.481,-0.06127000749531826
2.482,-0.06157711159425928
2.483,-0.06212933002426595
2.484,-0.06284539957777044
2.485,-0.06364144729990304
2.486,-0.06443359287977883
2.487,-0.06513794865049677
2.488,-0.06567061958914047
2.489,-0.06594770331677764
2.49,-0.06588529009846045
2.491,-0.06539946284322502
2.492,-0.06441085046187053
2.493,-0.06294238171650152
2.494,-0.06111795855564815
2.495,-0.059065763582456736
2.496,-0.05691397204405802
2.497,-0.05479075183156674
2.498,-0.05282426348008248
2.499,-0.05114266016868854
2.5,-0.04987408772045292
2.501,-0.04914668460242782
2.5020000000000002,-0.04908338612151195
2.503,-0.049687053333646085
2.504,-0.05084015920733683
2.505,-0.052419910783508106
2.5060000000000002,-0.05430350774706853
2.507,-0.05636814242691061
2.508,-0.0584909997959113
2.509,-0.060549257470932046
2.5100000000000002,-0.062420085712818374
2.511,-0.06398064742640017
2.512,-0.06511175903259658
2.513,-0.06578126515982693
2.5140000000000002,-0.06604564369200155
2.515,-0.06596534707232042
2.516,-0.06560082038796818
2.517,-0.06501250171910712
2.5180000000000002,-0.06426083625908025
2.519,-0.0634062811803855
2.52,-0.06250928764740614
2.521,-0.06163029946850934
2.5220000000000002,-0.06082855724296632
2.523,-0.06013403371494908
2.524,-0.05954642370791345
2.525,-0.05906401675015615
2.5260000000000002,-0.05868509501395837
2.527,-0.05840793331558552
2.528,-0.05823088058300682
2.529,-0.05815240023393677
2.5300000000000002,-0.05817088434808093
2.531,-0.05828472285358108
2.532,-0.058491903926486996
2.533,-0.05878032264303992
2.5340000000000003,-0.05912726775996606
2.535,-0.05950952355878008
2.536,-0.05990387318218261
2.537,-0.060287098634059684
2.5380000000000003,-0.06063598077948316
2.539,-0.06092729934471072
2.54,-0.061137832917185365
2.541,-0.061244358945536065
2.5420000000000003,-0.06122436461570534
2.543,-0.06107377975052822
2.544,-0.06080822084374689
2.545,-0.06044426326557037
2.5460000000000003,-0.05999848124739412
2.547,-0.05948744788179891
2.548,-0.05892773512255127
2.549,-0.058335913784603496
2.5500000000000003,-0.05772855354409332
2.551,-0.057122222938344444
2.552,-0.05653321847912528
2.553,-0.05597059428811029
2.5540000000000003,-0.05543555156999268
2.555,-0.05492889714767316
2.556,-0.05445143670523833
2.557,-0.05400397478796049
2.5580000000000003,-0.05358731480229749
2.559,-0.053202259015893
2.56,-0.052849608557576214
2.561,-0.05253016341736221
2.562,-0.052244756626653045
2.563,-0.0519951618372482
2.564,-0.05178418885957338
2.565,-0.05161469970902706
2.566,-0.05148955526219382
2.567,-0.05141161525684354
2.568,-0.0513837382919321
2.569,-0.05140878182760102
2.57,-0.051489602185177376
2.571,-0.05162905454717405
2.572,-0.05182982286797367
2.573,-0.052089757634849444
2.574,-0.05240130150580348
2.575,-0.052756610583881015
2.576,-0.053147839833311915
2.577,-0.05356714307951284
2.578,-0.05400667300908495
2.579,-0.05445858116981628
2.58,-0.054915017970679464
2.581,-0.05536813268183386
2.582,-0.055810166985802205
2.583,-0.05623610314632618
2.584,-0.05664403839896236
2.585,-0.05703223765454023
2.586,-0.05739896468507409
2.587,-0.0577424821237648
2.588,-0.05806105146499801
2.589,-0.05835293306434577
2.59,-0.058616386138565235
2.591,-0.058849668765599904
2.592,-0.059050856775396315
2.593,-0.05921254720210737
2.594,-0.05932101178251301
2.595,-0.059362169608414755
2.596,-0.059321938632799776
2.597,-0.05918623566984085
2.598,-0.05894097639489662
2.599,-0.058572075344511
2.6,-0.05806544591641421
2.601,-0.057407000369521316
2.602,-0.05658350668722228
2.603,-0.055608488782088634
2.604,-0.05452685055109882
2.605,-0.05338528379979605
2.606,-0.05223047919491162
2.607,-0.05110912626436011
2.608,-0.050067913397244104
2.609,-0.049153527843849645
2.61,-0.048412655715650614
2.611,-0.04789198198530469
2.612,-0.04763695927073207
2.613,-0.04765332609596018
2.614,-0.047899505970631105
2.615,-0.048331155235416305
2.616,-0.04890392909217178
2.617,-0.04957348160394051
2.618,-0.05029546456765857
2.619,-0.051025517960387304
2.62,-0.051719274729092934
2.621,-0.05233236662025322
2.622,-0.05282121661504173
2.623,-0.053168658710861856
2.624,-0.053389491983704816
2.625,-0.053500430256108525
2.626,-0.05351818621179555
2.6270000000000002,-0.05345947139567463
2.628,-0.053340996213840294
2.629,-0.05317946993357233
2.63,-0.05299160068333661
2.6310000000000002,-0.052794095452784476
2.632,-0.05260341818153799
2.633,-0.0524276945218516
2.634,-0.05226479857805144
2.6350000000000002,-0.052111973625157404
2.636,-0.05196646093642945
2.637,-0.0518254975891475
2.638,-0.05168631884508871
2.6390000000000002,-0.05154615882721546
2.64,-0.05140225051967614
2.641,-0.05125182576780459
2.642,-0.0510922622039119
2.6430000000000002,-0.05092617432870276
2.644,-0.050762717820974204
2.645,-0.05061145905799601
2.646,-0.05048196327822386
2.6470000000000002,-0.05038379458129863
2.648,-0.050326515928047204
2.649,-0.05031968914048223
2.65,-0.05037287490180168
2.6510000000000002,-0.05049563275638964
2.652,-0.05069715268440303
2.653,-0.050973029427127524
2.654,-0.05130160759300136
2.6550000000000002,-0.051660118230286586
2.656,-0.05202579124843032
2.657,-0.05237585541806623
2.658,-0.0526875383710126
2.6590000000000003,-0.05293806660027421
2.66,-0.053104665460041146
2.661,-0.05316455916568935
2.662,-0.0530955270609569
2.6630000000000003,-0.052896601868151434
2.664,-0.0525946903733585
2.665,-0.052221412848327965
2.666,-0.05180476664735034
2.6670000000000003,-0.051371884104934123
2.668,-0.05094989582823146
2.669,-0.050565930697036486
2.67,-0.05024711586378676
2.6710000000000003,-0.05002057675356206
2.672,-0.04991276697555017
2.673,-0.0499236101266485
2.674,-0.05001828743737218
2.6750000000000003,-0.05015962830958551
2.676,-0.050310460417795286
2.677,-0.05043360970915143
2.678,-0.050491900403445866
2.6790000000000003,-0.05044815499311427
2.68,-0.0502651942432345
2.681,-0.04990583719152718
2.682,-0.049333724530990566
2.6830000000000003,-0.0485462891517942
2.684,-0.04758592317826129
2.685,-0.04649813102585235
2.686,-0.045328415382672495
2.6870000000000003,-0.044122277209467806
2.688,-0.04292521573962936
2.689,-0.04178272847918858
2.69,-0.04074031120682179
2.691,-0.039843457973846294
2.692,-0.03913684351022303
2.693,-0.03863033160103533
2.694,-0.038286733481219214
2.695,-0.03806552283519482
2.696,-0.037926171620023874
2.697,-0.03782815006541286
2.698,-0.03773092667370887
2.699,-0.03759396821990352
2.7,-0.03737673975162928
2.701,-0.03703870458916397
2.702,-0.036539822221974466
2.703,-0.03586205353781336
2.704,-0.03501757400701139
2.705,-0.03402074989046436
2.706,-0.03288594572170924
2.707,-0.03162752430692629
2.708,-0.030259846724938182
2.709,-0.028797272327211465
2.71,-0.02725415873785453
2.711,-0.02564486185361843
2.712,-0.023983693906007984
2.713,-0.022283040449379964
2.714,-0.02055259953936765
2.715,-0.018801868090678873
2.716,-0.01704034129066451
2.717,-0.015277512599319603
2.718,-0.013522873749836024
2.719,-0.011785917752792042
2.72,-0.010076145925196161
2.721,-0.008403059948605093
2.722,-0.006775817879511026
2.723,-0.0051872656028199675
2.724,-0.003607125727463232
2.725,-0.002003362802458969
2.726,-0.0003439396494641011
2.727,0.0014031826372195386
2.728,0.00327004469064983
2.729,0.0052886888712370145
2.73,0.007491159266753351
2.731,0.009909501692325993
2.732,0.012575301287994549
2.733,0.015497202116089211
2.734,0.018650804760468855
2.735,0.02200914394719808
2.736,0.02554525612970043
2.737,0.029232179488751692
2.738,0.03304295393249015
2.739,0.03695588401185643
2.74,0.04096727345058622
2.741,0.04504490003630997
2.742,0.04915281976103782
2.743,0.053272053424529835
2.744,0.05740840130839232
2.745,0.061569727954776464
2.746,0.06576400132085625
2.747,0.0699992927788205
2.748,0.07428377711587726
2.749,0.07862573253424561
2.75,0.0830335406511675
2.751,0.08751568649889947
2.7520000000000002,0.092080567792145
2.753,0.09672642651865723
2.754,0.10143635265952347
2.755,0.10619230004599554
2.7560000000000002,0.11097632592434388
2.757,0.11577059095585013
2.758,0.12055735921681916
2.759,0.12531899819857045
2.7600000000000002,0.13003797880744244
2.761,0.1346968753647846
2.762,0.13927848455564618
2.763,0.14377237567467224
2.7640000000000002,0.1481782983510606
2.765,0.15249694273211778
2.766,0.15672910238017237
2.767,0.16087567427256907
2.7680000000000002,0.16493765880167027
2.769,0.16891615977485053
2.77,0.1728123844145065
2.771,0.1766276433580503
2.7720000000000002,0.1803633004390836
2.773,0.18401788554555987
2.774,0.18758552211232266
2.775,0.1910600540308332
2.7760000000000002,0.19443542860757082
2.777,0.19770569656402734
2.778,0.20086501203671583
2.779,0.20390763257716518
2.7800000000000002,0.20682791915192242
2.781,0.20962033614254752
2.782,0.2122794951822867
2.783,0.21480278844335562
2.7840000000000003,0.21719188826372193
2.785,0.21944893288573986
2.786,0.22157616396678348
2.787,0.22357592657924277
2.7880000000000003,0.22545066921052576
2.789,0.22720294376305444
2.79,0.22883540555427076
2.791,0.2303508133166328
2.7920000000000003,0.231751961787505
2.793,0.23303744707901133
2.794,0.234199148162062
2.795,0.23522844252800068
2.7960000000000003,0.23611681108318777
2.797,0.23685583814900035
2.798,0.23743721146183294
2.799,0.23785272217309686
2.8000000000000003,0.23809426484922072
2.801,0.23815383747164937
2.802,0.2380235374743453
2.803,0.23769530120302687
2.8040000000000003,0.2371607422672156
2.805,0.23641153907584625
2.806,0.23543947345287064
2.807,0.23423643063725683
2.8080000000000003,0.2327943992829898
2.809,0.23110547145907345
2.81,0.2291618426495265
2.811,0.22695581175338517
2.8120000000000003,0.22447989394542633
2.813,0.22173459509631965
2.814,0.21873505986574482
2.815,0.2155061733799842
2.816,0.21207271232275496
2.817,0.2084590099640808
2.818,0.20468924003067956
2.819,0.2007874170810819
2.82,0.19677741106657193
2.821,0.1926829520043439
2.822,0.18852753090292468
2.823,0.18432856184263474
2.824,0.18009345301166038
2.825,0.17582852201611385
2.826,0.17153992691880315
2.827,0.16723366623922115
2.828,0.1629155789535532
2.829,0.15859134449467252
2.83,0.15426648275214921
2.831,0.14994635407223744
2.832,0.14563611302945334
2.833,0.14133720291062876
2.834,0.13704490107399558
2.835,0.13275374528721473
2.836,0.12845811377464045
2.837,0.12415222521731419
2.838,0.11983013874373946
2.839,0.11548575345056108
2.84,0.11111280816937405
2.841,0.1067048821303466
2.842,0.1022554308432553
2.843,0.09776064066925615
2.844,0.09322150627523028
2.845,0.08863935269782376
2.846,0.0840153454303794
2.847,0.07935049042292443
2.848,0.07464563408217806
2.849,0.06990146327154828
2.85,0.06511850531113926
2.851,0.060297127977739944
2.852,0.05543767840025478
2.853,0.05055212660669281
2.854,0.04567286568724807
2.855,0.04083420169511509
2.856,0.03607028114017917
2.857,0.031415090989015695
2.858,0.026902458664894664
2.859,0.022566052047771797
2.86,0.018439379474294512
2.861,0.014555789737799644
2.862,0.010948179763182148
2.863,0.007623184894687276
2.864,0.004540935428376353
2.865,0.001656637873124736
2.866,-0.0010746608054958444
2.867,-0.0036980731852295987
2.868,-0.006258871387126915
2.869,-0.008802487075550787
2.87,-0.011374511458168363
2.871,-0.014020695285961709
2.872,-0.016786610989075836
2.873,-0.019686196570780353
2.874,-0.022676169527656817
2.875,-0.02570738566343432
2.876,-0.028727817861624615
2.8770000000000002,-0.03164699897842446
2.878,-0.03440997635816146
2.879,-0.03697698925003782
2.88,-0.03930815666334406
2.8810000000000002,-0.041363477367458025
2.882,-0.0431031450797733
2.883,-0.04451853192779421
2.884,-0.04565830671086557
2.8850000000000002,-0.04657716766055453
2.886,-0.047329692768513114
2.887,-0.04797033978648452
2.888,-0.048553446226297904
2.8890000000000002,-0.049133229359872285
2.89,-0.04976378621921142
2.891,-0.05049909359641044
2.892,-0.051392771334102465
2.8930000000000002,-0.0524734813411384
2.894,-0.05372344843588391
2.895,-0.055119714416992975
2.896,-0.05663920084320696
2.8970000000000002,-0.05825870903335544
2.898,-0.05995492006635478
2.899,-0.06170439478121017
2.9,-0.06348357377701518
2.9010000000000002,-0.065268777412951
2.902,-0.06703633478506053
2.903,-0.06877677536202872
2.904,-0.07050765517462121
2.9050000000000002,-0.07224943803211023
2.906,-0.07402246750385412
2.907,-0.07584696691930105
2.908,-0.07774303936798663
2.9090000000000003,-0.07973066769953514
2.91,-0.08182971452365617
2.911,-0.08405992221014998
2.912,-0.08644086267940285
2.9130000000000003,-0.08898607966207657
2.914,-0.0916976114835949
2.915,-0.09457608047610871
2.916,-0.09762198873185633
2.9170000000000003,-0.1008357181031648
2.918,-0.10421753020244554
2.919,-0.10776756640220157
2.92,-0.11148585302772425
2.9210000000000003,-0.115372344254534
2.922,-0.11942688876308752
2.923,-0.1236478040634523
2.924,-0.1280305227190909
2.9250000000000003,-0.13257003603512524
2.926,-0.1372612150767601
2.927,-0.1420988106692934
2.928,-0.14707745339810946
2.9290000000000003,-0.15219165360868242
2.93,-0.1574358014065681
2.931,-0.16280416665741662
2.932,-0.16829096778048566
2.9330000000000003,-0.17389943724256118
2.934,-0.17965088083649636
2.935,-0.18556863914228383
2.936,-0.19167593250000037
2.9370000000000003,-0.19799586100981464
2.938,-0.2045514045319738
2.939,-0.21135506297273832
2.94,-0.21828220498967105
2.9410000000000003,-0.22515430960218297
2.942,-0.23180204643893199
2.943,-0.23805493055674407
2.944,-0.24373063411967644
2.945,-0.24865355049751878
2.946,-0.2526573454593248
2.947,-0.2555849571734045
2.948,-0.25728859620733635
2.949,-0.25762974552795775
2.95,-0.2564791605013684
2.951,-0.2537168688929309
2.952,-0.24923219184617604
2.953,-0.24292688813530378
2.954,-0.2347185060808285
2.955,-0.22453466951060688
2.956,-0.21231227465174773
2.957,-0.19799749013062434
2.958,-0.18154575697286487
2.959,-0.16292178860338166
2.96,-0.14209957084632763
2.961,-0.11906236192512457
2.962,-0.09380269699268404
2.963,-0.06632311428593825
2.964,-0.0366369541642783
2.965,-0.004767021633342009
2.966,0.029254605901986173
2.967,0.06538657863751457
2.968,0.10357827436983412
2.969,0.1437697984962586
2.97,0.18589198401485926
2.971,0.22986639152438895
2.972,0.27560525632715577
2.973,0.3230024019288442
2.974,0.3719229236362161
2.975,0.4222201509839529
2.976,0.47380308314197167
2.977,0.5266215385354568
2.978,0.5800322105099817
2.979,0.6333613998220493
2.98,0.6859740755165884
2.981,0.7372738749268591
2.982,0.7867032301145487
2.983,0.8337666938205891
2.984,0.8780582545436285
2.985,0.919217203103937
2.986,0.9569214986101552
2.987,0.9908877684592281
2.988,1.0208713083365077
2.989,1.0466660822156841
2.99,1.0681047223588092
2.991,1.0850585293162622
2.992,1.0974373233764898
2.993,1.105159945234619
2.994,1.1081186393271036
2.995,1.1062356230255308
2.996,1.0994717819898487
2.997,1.0878266701683568
2.998,1.0713385097977022
2.999,1.0500841914029087
3.0,1.0241792737973354
3.001,0.9937779840827013
3.0020000000000002,0.9590733519005431
3.003,0.9203259765959861
3.004,0.8778998261583623
3.005,0.8322063250526697
3.0060000000000002,0.7836950807328342
3.007,0.7328210962990038
3.008,0.680061539735447
3.009,0.6258939839048934
3.0100000000000002,0.5707748617295595
3.011,0.5151394661912528
3.012,0.4594018467879279
3.013,0.4039308066560413
3.0140000000000002,0.34901912533522317
3.015,0.29493084293276617
3.016,0.24190885961540523
3.017,0.19017493560941387
3.0180000000000002,0.13992969120055962
3.019,0.09135260673419074
3.02,0.044602022621526974
3.021,-0.00018483487452438524
3.0220000000000002,-0.04289173472210767
3.023,-0.08340834948429002
3.024,-0.12161025125720103
3.025,-0.15738917815907244
3.0260000000000002,-0.19065800824863655
3.027,-0.22135075952506486
3.028,-0.24942258992806046
3.029,-0.2748497973377954
3.0300000000000002,-0.2976298195749365
3.031,-0.3177812344006057
3.032,-0.33534377613473987
3.033,-0.350382882751044
3.0340000000000003,-0.3629958802555341
3.035,-0.37330278082358836
3.036,-0.3814447365710877
3.037,-0.38744384897791606
3.0380000000000003,-0.3911307242601205
3.039,-0.39268268003072554
3.04,-0.39228784798519106
3.041,-0.3901272511135744
3.0420000000000003,-0.38637481189157064
3.043,-0.3811999452227841
3.044,-0.37477118904799256
3.045,-0.3672508863476173
3.0460000000000003,-0.3587942714420226
3.047,-0.3495494699915318
3.048,-0.33965749899640457
3.049,-0.32925226679685116
3.0500000000000003,-0.3184605730730244
3.051,-0.30740210884503916
3.052,-0.2961894417333709
3.053,-0.28492319496199053
3.0540000000000003,-0.2736851001000351
3.055,-0.2625480193887544
3.056,-0.25157770640933075
3.057,-0.24083280608289864
3.0580000000000003,-0.23036485467053558
3.059,-0.2202182797732803
3.06,-0.21043040033210406
3.061,-0.20103142662793153
3.0620000000000003,-0.19204449157680875
3.063,-0.1834969020075345
3.064,-0.17543682145557096
3.065,-0.16790956312467206
3.0660000000000003,-0.16095333155853642
3.067,-0.1545992226408187
3.068,-0.14887122359511173
3.069,-0.14378621298495795
3.0700000000000003,-0.13935396071384698
3.071,-0.13557712802522012
3.072,-0.1324512064568175
3.073,-0.1299402986700218
3.074,-0.12794090264346963
3.075,-0.1263541298167438
3.076,-0.12510083948937717
3.077,-0.12410320943444893
3.078,-0.12328387322594805
3.079,-0.1225659202387659
3.08,-0.12187289564870475
3.081,-0.12112880043246735
3.082,-0.12025814944406954
3.083,-0.11921150611425899
3.084,-0.11800553855687392
3.085,-0.11666774978465544
3.086,-0.11522609861125062
3.087,-0.11370899965121262
3.088,-0.11214532332000046
3.089,-0.1105643958339794
3.09,-0.1089959992104187
3.091,-0.1074703712674955
3.092,-0.10601819351119335
3.093,-0.10466466168643704
3.094,-0.10341992172801204
3.095,-0.10229207767267863
3.096,-0.10128968935810156
3.097,-0.1004217724228524
3.098,-0.09969779830640713
3.099,-0.0991276942491487
3.1,-0.09872184329236522
3.101,-0.09849108427825079
3.102,-0.09844668546568365
3.103,-0.09858589318382092
3.104,-0.09886796926627615
3.105,-0.09924632274735884
3.106,-0.09967481846228603
3.107,-0.10010777704717845
3.108,-0.10049997493906537
3.109,-0.10080664437587891
3.11,-0.10098347339645927
3.111,-0.10098660584055028
3.112,-0.10077266579108507
3.113,-0.10031381969028508
3.114,-0.09962344601197788
3.115,-0.09872219319457984
3.116,-0.09763116547741466
3.117,-0.09637192290071059
3.118,-0.09496648130560206
3.119,-0.09343731233412861
3.12,-0.09180734342923691
3.121,-0.09009995930077494
3.122,-0.08833905429664399
3.123,-0.08654747251630038
3.124,-0.08474417993740777
3.125,-0.08294766532900778
3.126,-0.08115750485568958
3.1270000000000002,-0.07937489572226275
3.128,-0.07761190702431814
3.129,-0.07588064003973767
3.13,-0.07419322822869448
3.1310000000000002,-0.07256183723365381
3.132,-0.07099865547931124
3.133,-0.06950842454836535
3.134,-0.06807499913388175
3.1350000000000002,-0.06667863665766427
3.136,-0.06529962672381123
3.137,-0.06391829111870982
3.138,-0.06251498381104031
3.1390000000000002,-0.0610700909517733
3.14,-0.059564030874174057
3.141,-0.05797725409379667
3.142,-0.0562902502872723
3.1430000000000002,-0.05448991257027619
3.144,-0.052581300436866804
3.145,-0.050572710409608305
3.146,-0.04847247119335789
3.1470000000000002,-0.04628894367526344
3.148,-0.04403052092476719
3.149,-0.04170562819360042
3.15,-0.03932272291578702
3.1510000000000002,-0.036890294707641665
3.152,-0.0344168620258805
3.153,-0.03190744627144658
3.154,-0.02935687872146326
3.1550000000000002,-0.02675818270272042
3.156,-0.024104413724302807
3.157,-0.0213886594775837
3.158,-0.018604039836229096
3.1590000000000003,-0.015743706856195673
3.16,-0.01280084477573526
3.161,-0.009768670015387833
3.162,-0.0066404337989408495
3.1630000000000003,-0.0034126503238909043
3.164,-9.13893322109071e-05
3.165,0.003315501171573352
3.166,0.006800141000643832
3.1670000000000003,0.010354617785891447
3.168,0.013970986975911988
3.169,0.017641271837013008
3.17,0.02135746345320957
3.1710000000000003,0.02511152072622588
3.172,0.028895372440709364
3.173,0.032703916944866344
3.174,0.03654102547589115
3.1750000000000003,0.04041221867056662
3.176,0.04432298498338016
3.177,0.04827878068653126
3.178,0.05228502986992679
3.1790000000000003,0.056347124441183075
3.18,0.06047042412562024
3.181,0.06466025646627105
3.182,0.06892191397773637
3.1830000000000003,0.07325572307596578
3.184,0.07764691348847888
3.185,0.08207781774471827
3.186,0.08653485255429778
3.1870000000000003,0.09101348911036339
3.188,0.09549482523318005
3.189,0.09995871549924426
3.19,0.1043850446957567
3.1910000000000003,0.10875372782062517
3.192,0.1130447134687635
3.193,0.11724507374207874
3.194,0.12136395435812547
3.1950000000000003,0.125414800748337
3.196,0.1294110885548456
3.197,0.1333663236304956
3.198,0.13729404203883427
3.1990000000000003,0.1412078100541175
3.2,0.14512122416129972
3.201,0.149047911056048
3.202,0.15300152702213027
3.203,0.15699415892715135
3.204,0.16103286404405184
3.205,0.16512373182260387
3.206,0.1692728819232904
3.207,0.17348646421729852
3.208,0.17777065878652262
3.209,0.18213167592355692
3.21,0.186575756131707
3.211,0.19110917012498252
3.212,0.19573821582130335
3.213,0.2004595799227102
3.214,0.20523893678628263
3.215,0.21003575551275533
3.216,0.21480953541357137
3.217,0.21951980601087298
3.218,0.2241261270375146
3.219,0.22858808843705344
3.22,0.23286531036375477
3.221,0.23691744318258404
3.222,0.24070417816707335
3.223,0.24420586592569507
3.224,0.24747035705027626
3.225,0.2505593279743797
3.226,0.2535344853422769
3.227,0.25645756600894576
3.228,0.25939033704006903
3.229,0.2623945957120318
3.23,0.26553216951192893
3.231,0.26886491613755964
3.232,0.27245471850073716
3.233,0.276336856480749
3.234,0.2804577836722269
3.235,0.28474547558442337
3.236,0.28912793793729974
3.237,0.293533206661516
3.238,0.2978893478984451
3.239,0.30212445800016124
3.24,0.3061666635294484
3.241,0.3099441212597892
3.242,0.31338502175477434
3.243,0.31644322598327657
3.244,0.31915970727496135
3.245,0.321593936437869
3.246,0.32380541362543436
3.247,0.32585366920178166
3.248,0.3277982637417408
3.249,0.32969878803084585
3.25,0.33161486306533733
3.251,0.33360614005216216
3.2520000000000002,0.33573229807039684
3.253,0.3380297028760986
3.254,0.3404540384755853
3.255,0.34294358731341607
3.2560000000000002,0.3454366620448579
3.257,0.3478716055358797
3.258,0.3501867908631594
3.259,0.35232062131407904
3.2600000000000002,0.3542115303867274
3.261,0.35579798178989674
3.262,0.357018470897648
3.263,0.3578327044502314
3.2640000000000002,0.35827497721498075
3.265,0.358396010539451
3.266,0.3582465559819038
3.267,0.3578773953113059
3.2680000000000002,0.35733934050732924
3.269,0.3566832337603527
3.27,0.3559599474714588
3.271,0.35522038425243807
3.2720000000000002,0.35451547627972535
3.273,0.3538816159232724
3.274,0.3533030117388753
3.275,0.3527522105787454
3.2760000000000002,0.3522017895057995
3.277,0.3516243557936611
3.278,0.3509925469266578
3.279,0.350279030599824
3.2800000000000002,0.34945650471889894
3.281,0.34849769740032827
3.282,0.34737536716052836
3.283,0.34606947303054214
3.2840000000000003,0.3445857228251852
3.285,0.3429250108695745
3.286,0.3410976242945898
3.287,0.33911978977643165
3.2880000000000003,0.33700769780926476
3.289,0.3347775027052228
3.29,0.33244532259440224
3.291,0.33002723942486667
3.2920000000000003,0.3275392988811464
3.293,0.32499168021267355
3.294,0.3223728688654496
3.295,0.3196662862783733
3.2960000000000003,0.3168553177083078
3.297,0.31392331223008585
3.298,0.3108535827365027
3.299,0.30762940593831944
3.3000000000000003,0.30423402236426267
3.301,0.3006506363610287
3.302,0.2968624161497715
3.303,0.2928616570967218
3.3040000000000003,0.2886752750256271
3.305,0.2843383414813267
3.306,0.2798858918266191
3.307,0.27535292524227195
3.3080000000000003,0.2707744047270156
3.309,0.2661852570975527
3.31,0.2616203729885451
3.311,0.2571146068526236
3.3120000000000003,0.252702776941254
3.313,0.2484099106969947
3.314,0.24422343643533467
3.315,0.24012170596772298
3.3160000000000003,0.23608303492357285
3.317,0.23208570275026857
3.318,0.22810795271315526
3.319,0.22412799189554455
3.3200000000000003,0.22012399119871323
3.321,0.21607408534190847
3.322,0.2119563728619322
3.323,0.20775305842580158
3.3240000000000003,0.20346255500430616
3.325,0.19908722075070404
3.326,0.19462937763621352
3.327,0.19009131145002034
3.3280000000000003,0.18547527179927423
3.329,0.1807834721090969
3.33,0.17601808962256946
3.331,0.17118126540074108
3.332,0.1662751043226274
3.333,0.16130430183739605
3.334,0.1562840032139429
3.335,0.1512319337983099
3.336,0.1461657827545057
3.337,0.14110320306450358
3.338,0.13606181152824823
3.339,0.1310591887636448
3.34,0.12611287920656497
3.341,0.12124039111084554
3.342,0.11645919654829402
3.343,0.11178255850631379
3.344,0.10720674278155334
3.345,0.10272367030317547
3.346,0.09832522581767009
3.347,0.09400325788948631
3.348,0.0897495789010419
3.349,0.08555596505271766
3.35,0.08141415636286657
3.351,0.07731585666780125
3.352,0.07325273362180254
3.353,0.06921678693613972
3.354,0.0652015040762121
3.355,0.0612007304924628
3.356,0.05720827545385983
3.357,0.0532179120473343
3.358,0.04922337717778881
3.359,0.04521837156808649
3.36,0.04119655975905795
3.361,0.03715157010949762
3.362,0.03307699479617154
3.363,0.028969780393103647
3.364,0.024841124133839203
3.365,0.02070594948393662
3.366,0.01657914374557078
3.367,0.012475558038877434
3.368,0.008410007301959701
3.369,0.0043972702908853314
3.37,0.0004520895796919903
3.371,-0.003410828439620967
3.372,-0.007176813557087306
3.373,-0.010834788612205397
3.374,-0.014388972755164146
3.375,-0.017847712981534043
3.376,-0.02121939251751938
3.3770000000000002,-0.024512430771360345
3.378,-0.027735283333326567
3.379,-0.030896441975726892
3.38,-0.03400443465290213
3.3810000000000002,-0.037067825501229355
3.382,-0.040095214839115184
3.383,-0.043092741321849856
3.384,-0.046055668196985367
3.3850000000000002,-0.04897631614430244
3.386,-0.05184704195653391
3.387,-0.05466023860845155
3.388,-0.05740833525685939
3.3890000000000002,-0.0600837972405971
3.39,-0.06267912608053487
3.391,-0.06518685947958087
3.392,-0.06759957132267648
3.3930000000000002,-0.06991432704351702
3.394,-0.07214804547881638
3.395,-0.07432318952822053
3.396,-0.07646225849279258
3.3970000000000002,-0.07858778785563071
3.398,-0.08072234928186516
3.399,-0.08288855061866247
3.4,-0.08510903589522331
3.4010000000000002,-0.08740538165041381
3.402,-0.08979938722666311
3.403,-0.09230454332944558
3.404,-0.09489036183771496
3.4050000000000002,-0.09751390391792912
3.406,-0.10013222141953587
3.407,-0.10270235765475282
3.408,-0.1051813473985677
3.4090000000000003,-0.10752621688873674
3.41,-0.10969398382578482
3.411,-0.11164165737300692
3.412,-0.11332623815646761
3.4130000000000003,-0.11471794953730931
3.414,-0.11584802359503493
3.415,-0.11676526129669773
3.416,-0.11751845669838869
3.4170000000000003,-0.11815639531896704
3.418,-0.11872785414006129
3.419,-0.11928160160606946
3.42,-0.11986639762415953
3.4210000000000003,-0.12053099356426818
3.422,-0.12132413225910083
3.423,-0.12228131662640929
3.424,-0.12337591183251044
3.4250000000000003,-0.12456305671935637
3.426,-0.1257978794507046
3.427,-0.12703549965308397
3.428,-0.12823102841579148
3.4290000000000003,-0.12933956829089424
3.43,-0.1303162132932273
3.431,-0.13111604890039621
3.432,-0.13169415205277565
3.4330000000000003,-0.1320213508410173
3.434,-0.13214382139596176
3.435,-0.13213022889265497
3.436,-0.13204923393224344
3.4370000000000003,-0.1319694885786418
3.438,-0.13195963635853486
3.439,-0.13208831226137577
3.44,-0.13242414273938824
3.4410000000000003,-0.13303574570756443
3.442,-0.1339917305436657
3.443,-0.13533865086802455
3.444,-0.1370157016275719
3.4450000000000003,-0.13892944407814928
3.446,-0.1409864233498606
3.447,-0.14309317227197896
3.448,-0.14515620847088392
3.4490000000000003,-0.14708204035269426
3.45,-0.148777167786294
3.451,-0.15014808210334007
3.452,-0.15110126609825603
3.4530000000000003,-0.15156654330094904
3.454,-0.15158950186870637
3.455,-0.15125153751482856
3.456,-0.15063404802029623
3.457,-0.14981842262885758
3.458,-0.14888604204703254
3.459,-0.14791827844410724
3.46,-0.1469964954521403
3.461,-0.14620204816595678
3.462,-0.14561628314315375
3.463,-0.14530476424486005
3.464,-0.14525339820027885
3.465,-0.14542300172729475
3.466,-0.1457743736986209
3.467,-0.14626830444973923
3.468,-0.14686557577890083
3.469,-0.1475269609471272
3.47,-0.14821322467820747
3.471,-0.1488851231587016
3.472,-0.14950340403793763
3.473,-0.15003366115094735
3.474,-0.15046644333912337
3.475,-0.15080029237026987
3.476,-0.1510337451303546
3.477,-0.15116532996811527
3.478,-0.15119356669505815
3.479,-0.15111696658545928
3.48,-0.15093403237636394
3.481,-0.15064325826758657
3.482,-0.15024312992171113
3.483,-0.14973507477507997
3.484,-0.149135961886947
3.485,-0.14846769220822204
3.486,-0.1477521609437423
3.487,-0.14701125476111285
3.488,-0.1462668517907098
3.489,-0.14554082162567658
3.49,-0.14485502532192793
3.491,-0.144231315398146
3.492,-0.14369153583578384
3.493,-0.14325340143161683
3.494,-0.14291264143808413
3.495,-0.1426576793597627
3.496,-0.1424769253312473
3.497,-0.14235878094990176
3.498,-0.14229163927585914
3.499,-0.14226388483202212
3.5,-0.14226389360406247
3.501,-0.14228003304042128
3.5020000000000002,-0.14230066205230876
3.503,-0.14231607193786153
3.504,-0.14232708847825096
3.505,-0.14233809169959138
3.5060000000000002,-0.14235345587968945
3.507,-0.14237754675912148
3.508,-0.14241472154123277
3.509,-0.14246932889213806
3.5100000000000002,-0.14254570894072113
3.511,-0.14264819327863554
3.512,-0.14278110496030372
3.513,-0.14294724412636545
3.5140000000000002,-0.14314102399711642
3.515,-0.1433539678658065
3.516,-0.14357758785003885
3.517,-0.1438033875301865
3.5180000000000002,-0.14402319147174003
3.519,-0.14422898919571941
3.52,-0.1444123705971405
3.521,-0.1445649227184171
3.5220000000000002,-0.14467823182238063
3.523,-0.1447452600475959
3.524,-0.14476672528140022
3.525,-0.1447460483875035
3.5260000000000002,-0.14468664642949555
3.527,-0.14459193564014045
3.528,-0.1444653314726202
3.529,-0.14431024860053465
3.5300000000000002,-0.14413010091790215
3.531,-0.1439283015391589
3.532,-0.14370826279915921
3.533,-0.14347421430080076
3.5340000000000003,-0.1432350805429096
3.535,-0.14300145756235125
3.536,-0.14278394265634267
3.537,-0.14259313234251847
3.5380000000000003,-0.14243962235893173
3.539,-0.14233400766405338
3.54,-0.14228688243677248
3.541,-0.14230884007639624
3.5420000000000003,-0.14241047320264966
3.543,-0.1425995619356226
3.544,-0.14286744504579882
3.545,-0.1431995025534162
3.5460000000000003,-0.14358110540754482
3.547,-0.14399762377767406
3.548,-0.14443442705370999
3.549,-0.14487688384597797
3.5500000000000003,-0.14531036198522043
3.551,-0.14572022852259897
3.552,-0.14609184972969222
3.553,-0.146412104673178
3.5540000000000003,-0.14667688723648248
3.555,-0.14688541495497115
3.556,-0.14703690982730291
3.557,-0.1471305930725551
3.5580000000000003,-0.14716568513022268
3.559,-0.14714140566021927
3.56,-0.14705697354287622
3.561,-0.1469116068789429
3.5620000000000003,-0.14670452298958697
3.563,-0.1464368046281286
3.564,-0.14612085826387278
3.565,-0.14577333836165948
3.5660000000000003,-0.1454109061536197
3.567,-0.14505022209230187
3.568,-0.144707945850673
3.569,-0.1444007363221176
3.5700000000000003,-0.14414525162043906
3.571,-0.14395814907985802
3.572,-0.14385608525501384
3.573,-0.1438533288792731
3.5740000000000003,-0.14394939057360873
3.575,-0.14413814698036112
3.576,-0.14441346275552155
3.577,-0.1447692017755006
3.5780000000000003,-0.14519922713712555
3.579,-0.1456974011576434
3.58,-0.1462575853747174
3.581,-0.14687364054643057
3.5820000000000003,-0.1475394266512825
3.583,-0.14824505491650433
3.584,-0.148957027870891
3.585,-0.14963267898900134
3.586,-0.15022932064178227
3.587,-0.15070426442060006
3.588,-0.15101482113723794
3.589,-0.15111830082389802
3.59,-0.15097201273320004
3.591,-0.1505332653381817
3.592,-0.1497593663322996
3.593,-0.14862134976353106
3.594,-0.14717834962613646
3.595,-0.14552430659982238
3.596,-0.14375324615964105
3.597,-0.14195919300105908
3.598,-0.14023617103996494
3.599,-0.13867820341266127
3.6,-0.13737931247587273
3.601,-0.1364335198067384
3.602,-0.13593484620281843
3.603,-0.13595845545473706
3.604,-0.1364561948756628
3.605,-0.13733034834110913
3.606,-0.13848306439348393
3.607,-0.1398164907956156
3.608,-0.1412327745307476
3.609,-0.14263406180254465
3.61,-0.14392249803508636
3.611,-0.1450002278728736
3.612,-0.1457693951808224
3.613,-0.1461473275843433
3.614,-0.1461525462106122
3.615,-0.14584494429798844
3.616,-0.1452845378371293
3.617,-0.14453134203910958
3.618,-0.14364537133542327
3.619,-0.1426866393779807
3.62,-0.1417151590391125
3.621,-0.14079094241156515
3.622,-0.13997400080850508
3.623,-0.13931704429109354
3.624,-0.13882320014998603
3.625,-0.13847497850860582
3.626,-0.1382548325101091
3.6270000000000002,-0.1381452167270584
3.628,-0.13812858495243496
3.629,-0.13818739019963774
3.63,-0.1383040847024837
3.6310000000000002,-0.13846111991520826
3.632,-0.1386409465124645
3.633,-0.13882667381564615
3.634,-0.13900597480114818
3.6350000000000002,-0.1391684524581959
3.636,-0.13930371589418758
3.637,-0.1394013734369398
3.638,-0.13945103263468703
3.6390000000000002,-0.13944230025608192
3.64,-0.13936478229019533
3.641,-0.139208083946516
3.642,-0.13896180965495086
3.6430000000000002,-0.1386180832744367
3.644,-0.13818680801852926
3.645,-0.13768553609987882
3.646,-0.13713184869723316
3.6470000000000002,-0.13654332620975743
3.648,-0.1359375482570358
3.649,-0.13533209418136774
3.65,-0.1347445502246247
3.6510000000000002,-0.13419250784516198
3.652,-0.1336935578809634
3.653,-0.13326331760639895
3.654,-0.13290321662655766
3.6550000000000002,-0.1326084758336579
3.656,-0.1323742891453986
3.657,-0.13219584969989623
3.658,-0.13206834985568564
3.6590000000000003,-0.1319869811917196
3.66,-0.13194725404528718
3.661,-0.13195051727512686
3.662,-0.1319933707370038
3.6630000000000003,-0.1320694131153771
3.664,-0.13216980885676813
3.665,-0.13228464197644768
3.666,-0.13240399670677752
3.6670000000000003,-0.13251796245415842
3.668,-0.13261663379902872
3.669,-0.13269011049586543
3.67,-0.13272849747318308
3.6710000000000003,-0.1327219048335351
3.672,-0.1326604478535125
3.673,-0.13253547936847065
3.674,-0.13234756762025648
3.6750000000000003,-0.1321014543870634
3.676,-0.1318019071626557
3.677,-0.1314536986148359
3.678,-0.13106160658544475
3.6790000000000003,-0.13063041409036066
3.68,-0.13016490931950125
3.681,-0.12966988563682127
3.682,-0.12915014158031418
3.6830000000000003,-0.12861055425280493
3.684,-0.128056565142211
3.685,-0.12749387828172343
3.686,-0.12692820424402074
3.6870000000000003,-0.1263652587758192
3.688,-0.1258107627978739
3.689,-0.12527044240497776
3.69,-0.12475002886596177
3.6910000000000003,-0.12425525862369503
3.692,-0.12379187329508543
3.693,-0.12336330691549677
3.694,-0.12295503028006505
3.6950000000000003,-0.12254410995923012
3.696,-0.12210756977763279
3.697,-0.1216224387339515
3.698,-0.12106575100090268
3.6990000000000003,-0.12041454592524106
3.7,-0.11964586802776027
3.701,-0.11873676700329136
3.702,-0.11766429772070358
3.7030000000000003,-0.11640926362963054
3.704,-0.11498213054861901
3.705,-0.11340748307575381
3.706,-0.11170999717550488
3.7070000000000003,-0.10991435398637886
3.708,-0.1080452398209232
3.709,-0.10612734616572089
3.71,-0.1041853696813947
3.7110000000000003,-0.10224401220260373
3.712,-0.10032798073804838
3.713,-0.0984601670493397
3.714,-0.0966487599782898
3.715,-0.09489483650687833
3.716,-0.09319943230649848
3.717,-0.09156358822258381
3.718,-0.08998835027460342
3.719,-0.08847476965606615
3.72,-0.08702390273451699
3.721,-0.08563681105154317
3.722,-0.08431456132276581
3.723,-0.08305525923963071
3.724,-0.08183257315447176
3.725,-0.08060815116551742
3.726,-0.07934356759021798
3.727,-0.07800040800139818
3.728,-0.07654026352693409
3.729,-0.07492473046874537
3.73,-0.0731154103027845
3.731,-0.07107390967904528
3.732,-0.06876184042155652
3.733,-0.0661454324251215
3.734,-0.06322969305791201
3.735,-0.060039029462160345
3.736,-0.05659799801384179
3.737,-0.052931160262972926
3.738,-0.04906308293360594
3.739,-0.0450183379238309
3.74,-0.04082150230577604
3.741,-0.03649715832561088
3.742,-0.03206989340354018
3.743,-0.027563112054097432
3.744,-0.022990037164907752
3.745,-0.01835871620373035
3.746,-0.013677159451509652
3.747,-0.008951350506933454
3.748,-0.00419274857750827
3.749,0.0005828662420801836
3.75,0.00535977612426255
3.751,0.010122325508581442
3.7520000000000002,0.014854921101692686
3.753,0.01954420023542787
3.754,0.024195830060006716
3.755,0.028825346596302107
3.7560000000000002,0.033448430389985254
3.757,0.03808082425383408
3.758,0.04273833326774484
3.759,0.04743682477872404
3.7600000000000002,0.05219222840089289
3.761,0.05702053601547859
3.762,0.06193780177082697
3.763,0.06695666310365422
3.7640000000000002,0.07205876947294328
3.765,0.07720951255519928
3.766,0.08237420117373527
3.767,0.08751820641897604
3.7680000000000002,0.09260696164845941
3.769,0.09760596248683065
3.77,0.10248076682585269
3.771,0.10719699482439955
3.7720000000000002,0.11172032890845875
3.773,0.11602017168924349
3.774,0.12009930202846986
3.775,0.12397836088666744
3.7760000000000002,0.1276782190313005
3.777,0.13121980949694062
3.778,0.1346241275852772
3.779,0.13791223086510965
3.7800000000000002,0.14110523917235218
3.781,0.14422433461002573
3.782,0.14729076154826928
3.783,0.15032320059832752
3.7840000000000003,0.15331598739763513
3.785,0.1562502634681673
3.786,0.15910710071239018
3.787,0.16186763329988071
3.7880000000000003,0.1645130576673289
3.789,0.16702463251853406
3.79,0.1693836788244114
3.791,0.17157157982298724
3.7920000000000003,0.17356978101940132
3.793,0.17536129979292103
3.794,0.17694353634453006
3.795,0.1783218593396387
3.7960000000000003,0.17950178273877238
3.797,0.1804888827695665
3.798,0.18128879792677144
3.799,0.18190722897224856
3.8000000000000003,0.1823499389349728
3.801,0.18262275311102946
3.802,0.1827315590636183
3.803,0.1826822320609078
3.8040000000000003,0.18247998763148307
3.805,0.1821296984028768
3.806,0.1816359759028005
3.807,0.18100161821571661
3.8080000000000003,0.18023884362701806
3.809,0.17936230292315136
3.81,0.17838660925714594
3.811,0.17732633814861773
3.8120000000000003,0.1761960274837654
3.813,0.17500697673735108
3.814,0.17373880622159737
3.815,0.17235305086856367
3.8160000000000003,0.1708109976118302
3.817,0.1690738957515682
3.818,0.1671029569545282
3.819,0.16485935525404882
3.8200000000000003,0.1623042270500508
3.821,0.15939867110904454
3.822,0.15610374856412138
3.823,0.15238707157118578
3.8240000000000003,0.1482827161597075
3.825,0.14386327335187502
3.826,0.13920177269381762
3.827,0.1343712371393934
3.8280000000000003,0.12944466791842613
3.829,0.12449502875663264
3.83,0.11959524574631115
3.831,0.11481820734634514
3.8320000000000003,0.11023676438220241
3.833,0.10591569007810693
3.834,0.10183685392192719
3.835,0.09793326277025008
3.8360000000000003,0.09413725717233493
3.837,0.09038114004403329
3.838,0.08659717666777428
3.839,0.08271759469257561
3.84,0.07867458413403806
3.841,0.07440029737434721
3.842,0.06982684916227837
3.843,0.06489494895747772
3.844,0.059636133485715545
3.845,0.054136313322057115
3.846,0.04848209655314576
3.847,0.04276005363220123
3.848,0.037056717379032544
3.849,0.03145858298002982
3.85,0.02605210798817582
3.851,0.02092371232303028
3.852,0.016159779622580493
3.853,0.011837535237418748
3.854,0.00793603086862664
3.855,0.00437455655632713
3.856,0.0010715188834977303
3.857,-0.002054713200298913
3.858,-0.005085808378912161
3.859,-0.008103472969609518
3.86,-0.011189450923074018
3.861,-0.014425523823403046
3.862,-0.017893510888106055
3.863,-0.0216664912655102
3.864,-0.025721173332792596
3.865,-0.02997467818755793
3.866,-0.03435216349327041
3.867,-0.03880747870981977
3.868,-0.04325943590693873
3.869,-0.04762274587870599
3.87,-0.051812539790776546
3.871,-0.05574436918039408
3.872,-0.0593342059563816
3.873,-0.06250565421298006
3.874,-0.06526366733913953
3.875,-0.0676644826548855
3.876,-0.06976554699509652
3.8770000000000002,-0.07162472756623392
3.878,-0.07330031194633942
3.879,-0.07485100808503889
3.88,-0.07633594430354158
3.8810000000000002,-0.07781466929463807
3.882,-0.07934715212270067
3.883,-0.08098934683664682
3.884,-0.08274676747871257
3.8850000000000002,-0.08459286513739155
3.886,-0.08650098451106508
3.887,-0.08844489066969971
3.888,-0.09039876905484287
3.8890000000000002,-0.09233722547962592
3.89,-0.09423528612876017
3.891,-0.09606839755854199
3.892,-0.09781242669684884
3.8930000000000002,-0.09944471789529236
3.894,-0.10095542380486588
3.895,-0.10234315725553382
3.896,-0.10360708760031755
3.8970000000000002,-0.10474680456382218
3.898,-0.10576231824223353
3.899,-0.10665405910332167
3.9,-0.10742287798643836
3.9010000000000002,-0.10807004610251808
3.902,-0.10859725503407733
3.903,-0.10900820695522609
3.904,-0.1093260737927971
3.9050000000000002,-0.10958701053115086
3.906,-0.10982781450714574
3.907,-0.110085703429223
3.908,-0.11039831537740677
3.9090000000000003,-0.11080370880330315
3.91,-0.11134036253010081
3.911,-0.11204717575257077
3.912,-0.11296346803706703
3.9130000000000003,-0.11412642607594833
3.914,-0.11554238845449302
3.915,-0.11719716085012559
3.916,-0.1190765833101726
3.9170000000000003,-0.12116691625354474
3.918,-0.12345484047073213
3.919,-0.12592745712381043
3.92,-0.12857228774643614
3.9210000000000003,-0.1313772742438503
3.922,-0.13433077889287232
3.923,-0.13742366812697715
3.924,-0.14067332202812674
3.9250000000000003,-0.14411530775390338
3.926,-0.14778595380398746
3.927,-0.1522158081675044
3.928,-0.1581561351278403
3.9290000000000003,-0.16543081233597745
3.93,-0.17385492543186945
3.931,-0.1832501871578282
3.932,-0.1934449373585117
3.9330000000000003,-0.20427264590789476
3.934,-0.21555423840818697
3.935,-0.22710400418277316
3.936,-0.23874259468806625
3.9370000000000003,-0.2502972884828331
3.938,-0.2616019912281743
3.939,-0.2724972356875547
3.94,-0.2828301817267831
3.9410000000000003,-0.29245461631402137
3.942,-0.3012309535197677
3.943,-0.3090279055096587
3.944,-0.3157426989643527
3.9450000000000003,-0.3212945730522796
3.946,-0.32560971376781384
3.947,-0.32862093420768584
3.948,-0.330267674570973
3.9490000000000003,-0.3304960021591012
3.95,-0.32925861137584506
3.951,-0.32651482372732915
3.952,-0.3222305878220264
3.9530000000000003,-0.31637714081438206
3.954,-0.308914410231694
3.955,-0.2997961403610023
3.956,-0.2889824258659665
3.9570000000000003,-0.2764399885125899
3.958,-0.26214217716924143
3.959,-0.24606896780662318
3.96,-0.22820696349779024
3.9610000000000003,-0.20854939441813894
3.962,-0.18709611784544028
3.963,-0.16385264016657689
3.964,-0.138817685498263
3.9650000000000003,-0.11198687488857773
3.966,-0.08336223814451545
3.967,-0.052952432175386296
3.968,-0.02077274099285826
3.969,0.013154924289049052
3.97,0.04880202545398582
3.971,0.08613339718320218
3.972,0.12510724705564952
3.973,0.16567246280752532
3.974,0.20773352049148908
3.975,0.251160413454575
3.976,0.29581585903504776
3.977,0.34155594746881
3.978,0.3882301418894287
3.979,0.43568127832806813
3.98,0.483745565713599
3.981,0.5322525858725285
3.982,0.5810252935290279
3.983,0.6298805915227635
3.984,0.6786370175645013
3.985,0.7271126703937812
3.986,0.77511917120512
3.987,0.822360479191666
3.988,0.8675011884996517
3.989,0.9098161485309714
3.99,0.948875792591411
3.991,0.9842897114681798
3.992,1.015706653430012
3.993,1.042817262440957
3.994,1.0653916057276698
3.995,1.0832695475103238
3.996,1.096330877288379
3.997,1.104494542042755
3.998,1.107718646235847
3.999,1.1060004518115187
4.0,1.0993763781951145
4.001,1.0879220022934413
4.002,1.0717520584948064
4.003,1.051016480667514
4.0040000000000004,1.025844759570336
4.005,0.9963594691232754
4.006,0.9627211442955326
4.007,0.9251294775378952
4.008,0.8838233187824952
4.009,0.8390806754430392
4.01,0.7912187124147191
4.011,0.7405937520740686
4.0120000000000005,0.6876012742792244
4.013,0.6326802765951877
4.014,0.5763761622240556
4.015,0.5193263052916894
4.016,0.46220865774965775
4.017,0.40568396104460186
4.018,0.34985061461079897
4.019,0.2949352030627583
4.0200000000000005,0.24124524466266
4.021,0.1890713233274024
4.022,0.13868708862847223
4.023,0.0903447495234566
4.024,0.04420838080999522
4.025,0.00036831720721576706
4.026,-0.04110362225206098
4.027,-0.08015255263419288
4.0280000000000005,-0.11674051495368971
4.029,-0.15084647429687736
4.03,-0.18246632946916258
4.031,-0.21161291362110518
4.032,-0.23831599424865532
4.033,-0.26261908052042104
4.034,-0.28453092641789074
4.035,-0.30403532557268503
4.0360000000000005,-0.3211317994026651
4.037,-0.3358368036709779
4.038,-0.3481837284860835
4.039,-0.3582228983016716
4.04,-0.3660215719167468
4.041,-0.3716639424755627
4.042,-0.37525113746765776
4.043,-0.3769023309633452
4.0440000000000005,-0.37676908295087014
4.045,-0.37484483215440495
4.046,-0.3712062304594337
4.047,-0.36603831702713935
4.048,-0.35951821397989364
4.049,-0.35181512640128554
4.05,-0.34309034233611285
4.051,-0.3334972327903536
4.0520000000000005,-0.3231812517312133
4.053,-0.3122804075982546
4.054,-0.3009328125033245
4.055,-0.2892753717404855
4.056,-0.2774372832882047
4.057,-0.2655398285021362
4.058,-0.2536963716991393
4.059,-0.24201236015724614
4.0600000000000005,-0.23058532411572466
4.061,-0.21950487677504596
4.062,-0.20885271429685617
4.063,-0.19870111699475773
4.064,-0.18908830497534462
4.065,-0.1800223680784502
4.066,-0.17150277282793766
4.067,-0.1635210687088514
4.0680000000000005,-0.15606088816746339
4.069,-0.1490979466112488
4.07,-0.14260004240886714
4.071,-0.13652705689020755
4.072,-0.13083095434634007
4.073,-0.1254577158091756
4.074,-0.12038000061874339
4.075,-0.11559241137262544
4.0760000000000005,-0.1110826139629403
4.077,-0.10683035724300662
4.078,-0.10282949440358835
4.079,-0.09911323715437417
4.08,-0.09569643486179998
4.081,-0.09259398232729611
4.082,-0.08982141860098253
4.083,-0.08739359263689757
4.0840000000000005,-0.08530150767296413
4.085,-0.08351533864852739
4.086,-0.0820051771629945
4.087,-0.08074175906446711
4.088,-0.07969646444973028
4.089,-0.0788413176642618
4.09,-0.07814898730222743
4.091,-0.07759278620647972
4.0920000000000005,-0.07714667146856194
4.093,-0.076785552907421
4.094,-0.07649079448711814
4.095,-0.07624957904941246
4.096,-0.07604991457569732
4.097,-0.07588045329605737
4.098,-0.07573049168926606
4.099,-0.07558997048278317
4.1,-0.07544947465276051
4.101,-0.07530023342403543
4.102,-0.07513412027013669
4.103,-0.07494335393354755
4.104,-0.074715017443509
4.105,-0.07443160872336625
4.106,-0.07407608143296783
4.107,-0.07363203348084858
4.108,-0.07308370702423532
4.109,-0.0724159884690406
4.11,-0.07161440846986807
4.111,-0.0706651419300097
4.112,-0.06955500800144461
4.113,-0.06827268555375615
4.114,-0.06683162382387403
4.115,-0.06526808907722317
4.116,-0.06361981575586999
4.117,-0.06192518255056751
4.118,-0.06022321240075855
4.119,-0.05855357249457635
4.12,-0.05695657426883881
4.121,-0.05547308456544741
4.122,-0.05412653390686992
4.123,-0.05293764676095503
4.124,-0.05189900735941065
4.125,-0.05096649018465731
4.126,-0.05009458441534446
4.127,-0.049237800320710554
4.128,-0.04835066890510112
4.1290000000000004,-0.04738773925456108
4.13,-0.046303580031811474
4.131,-0.04505278097866346
4.132,-0.04358995292752355
4.133,-0.04187206213028583
4.134,-0.03990498384412774
4.135,-0.03774097478737606
4.136,-0.03543414114241034
4.1370000000000005,-0.03303861018220511
4.138,-0.0306085302703224
4.139,-0.028198070860911147
4.14,-0.025861422498713836
4.141,-0.023652796819057534
4.142,-0.02162642654786217
4.143,-0.019833901261400458
4.144,-0.018269491889928838
4.1450000000000005,-0.01687225663715794
4.146,-0.015579031925918078
4.147,-0.014326675269621947
4.148,-0.013052065272280365
4.149,-0.011692101628484572
4.15,-0.010183705123422133
4.151,-0.008463817632868832
4.152,-0.006469402123184732
4.1530000000000005,-0.004140030444302088
4.154,-0.0014725474168289046
4.155,0.0014801611801262906
4.156,0.0046628471228689974
4.157,0.008020241097123442
4.158,0.01149705269801922
4.159,0.015037970430094505
4.16,0.018587661707307322
4.1610000000000005,0.022090772853017342
4.162,0.025491929099996636
4.163,0.028737296777002014
4.164,0.03180856052441775
4.165,0.034722707480752985
4.166,0.037498222717282086
4.167,0.04015357021469037
4.168,0.04270719286308094
4.1690000000000005,0.04517751246196101
4.17,0.04758292972024631
4.171,0.04994182425627415
4.172,0.052272554597778596
4.173,0.05459376069811837
4.174,0.056931140651303724
4.175,0.05931751877715508
4.176,0.0617864934539437
4.1770000000000005,0.06437234349705205
4.178,0.06710750827680284
4.179,0.07002426736191651
4.18,0.07315486954374358
4.181,0.07653153283629438
4.182,0.0801864444762128
4.183,0.08415013576487478
4.184,0.08841397443399758
4.1850000000000005,0.09292916456831692
4.186,0.09764505426191165
4.187,0.10251096083151429
4.188,0.10747617081649018
4.189,0.11248993997886181
4.19,0.1175014933032877
4.191,0.12246002499706916
4.192,0.1273146984901657
4.1930000000000005,0.1320162128217095
4.194,0.13655406059222336
4.195,0.14095814878843194
4.196,0.1452602443411891
4.197,0.14949208340400907
4.198,0.15368537135303934
4.199,0.15787178278707212
4.2,0.16208296152755608
4.2010000000000005,0.1663505206185735
4.202,0.17070604232685133
4.203,0.17517996757979482
4.204,0.17977436230977287
4.205,0.18446126788747652
4.206,0.18921125409995027
4.207,0.19399485995688331
4.208,0.1987825936906218
4.2090000000000005,0.2035449327561442
4.21,0.2082523238310749
4.211,0.2128751828156942
4.212,0.21738389483291196
4.213,0.22174988816934268
4.214,0.22597279483999375
4.215,0.23008256566884125
4.216,0.23411061835178304
4.2170000000000005,0.23808833980735172
4.218,0.24204708617672266
4.219,0.24601818282373006
4.22,0.2500329243348355
4.221,0.2541225745191624
4.222,0.2583183664084666
4.223,0.26265040885216095
4.224,0.2671191571690909
4.225,0.271692691004563
4.226,0.2763374200735752
4.227,0.28101972331375874
4.228,0.2857059488837412
4.229,0.29036241156832804
4.23,0.29495538752212097
4.231,0.29945112064351204
4.232,0.3038158240535507
4.233,0.308016718804196
4.234,0.3120500056122221
4.235,0.315944031363411
4.236,0.31972878630662704
4.237,0.3234342299133896
4.238,0.32709029087785274
4.239,0.3307268671168158
4.24,0.33437382576973235
4.241,0.33806100319868815
4.242,0.3418182049884266
4.243,0.34567388382962105
4.244,0.34961837925202466
4.245,0.35359909306765
4.246,0.35756110497731497
4.247,0.361450097512713
4.248,0.36521639885816504
4.249,0.3688069203227276
4.25,0.37216761471412274
4.251,0.37524451578252366
4.252,0.3779837382205657
4.253,0.3803330534232697
4.2540000000000004,0.38228714336580605
4.255,0.38389436795555076
4.256,0.38520610500726316
4.257,0.3862738133146244
4.258,0.38714903335496226
4.259,0.3878833872387745
4.26,0.38852857804537505
4.261,0.3891363897965455
4.2620000000000005,0.38975868745652154
4.263,0.3904463468754712
4.264,0.3912175000064119
4.265,0.3920521967854867
4.266,0.3929284228064379
4.267,0.39382424460546533
4.268,0.39471780966123005
4.269,0.39558734639485527
4.2700000000000005,0.3964111641699231
4.271,0.397167653292476
